Time (s),Sample #,Amplitude,BPM,Lead Off
0.053,1,13,0.0,0
0.053,2,12,0.0,0
0.053,3,11,0.0,0
0.053,4,9,0.0,0
0.053,5,7,0.0,0
0.084,6,6,0.0,0
0.084,7,5,0.0,0
0.084,8,3,0.0,0
0.084,9,2,0.0,0
0.084,10,0,0.0,1
0.084,11,-1,0.0,0
0.097,12,-2,0.0,0
0.097,13,-4,0.0,0
0.097,14,-5,0.0,0
0.097,15,-6,0.0,0
0.097,16,-7,0.0,0
0.112,17,-7,0.0,0
0.112,18,-8,0.0,0
0.112,19,-9,0.0,0
0.112,20,-9,0.0,0
0.112,21,-8,0.0,0
0.145,22,-7,0.0,0
0.145,23,-7,0.0,0
0.145,24,-7,0.0,0
0.145,25,-7,0.0,0
0.145,26,-6,0.0,0
0.158,27,-6,0.0,0
0.158,28,-6,0.0,0
0.158,29,-5,0.0,0
0.158,30,-4,0.0,0
0.158,31,-3,0.0,0
0.187,32,-2,0.0,0
0.187,33,-1,0.0,0
0.187,34,0,0.0,1
0.187,35,0,0.0,1
0.187,36,1,0.0,0
0.187,37,3,0.0,0
0.202,38,3,0.0,0
0.202,39,4,0.0,0
0.202,40,4,0.0,0
0.204,41,4,0.0,0
0.204,42,4,0.0,0
0.204,43,3,0.0,0
0.204,44,3,0.0,0
0.217,45,3,0.0,0
0.217,46,3,0.0,0
0.217,47,3,0.0,0
0.217,48,3,0.0,0
0.217,49,2,0.0,0
0.217,50,2,0.0,0
0.217,51,1,0.0,0
0.247,52,1,0.0,0
0.247,53,0,0.0,1
0.247,54,0,0.0,1
0.247,55,0,0.0,1
0.247,56,0,0.0,1
0.247,57,-1,0.0,0
0.263,58,-2,0.0,0
0.263,59,-2,0.0,0
0.263,60,-2,0.0,0
0.263,61,-3,0.0,0
0.263,62,-3,0.0,0
0.292,63,-3,0.0,0
0.292,64,-3,0.0,0
0.293,65,-3,0.0,0
0.293,66,-4,0.0,0
0.293,67,-4,0.0,0
0.307,68,-4,0.0,0
0.307,69,-4,0.0,0
0.307,70,-4,0.0,0
0.308,71,-4,0.0,0
0.308,72,-4,0.0,0
0.323,73,-4,0.0,0
0.323,74,-4,0.0,0
0.323,75,-3,0.0,0
0.323,76,-3,0.0,0
0.323,77,-3,0.0,0
0.352,78,-4,0.0,0
0.352,79,-4,0.0,0
0.352,80,-4,0.0,0
0.352,81,-4,0.0,0
0.352,82,-3,0.0,0
0.368,83,-3,0.0,0
0.368,84,-3,0.0,0
0.368,85,-2,0.0,0
0.368,86,-1,0.0,0
0.368,87,0,0.0,1
0.399,88,2,0.0,0
0.399,89,5,0.0,0
0.399,90,7,0.0,0
0.399,91,9,0.0,0
0.399,92,11,0.0,0
0.399,93,15,0.0,0
0.412,94,20,0.0,0
0.412,95,28,0.0,0
0.412,96,36,0.0,0
0.412,97,43,0.0,0
0.412,98,49,0.0,0
0.427,99,53,0.0,0
0.427,100,56,0.0,0
0.427,101,56,0.0,0
0.427,102,54,0.0,0
0.427,103,50,0.0,0
0.459,104,44,0.0,0
0.459,105,39,0.0,0
0.459,106,32,0.0,0
0.459,107,26,0.0,0
0.459,108,19,0.0,0
0.477,109,12,0.0,0
0.477,110,6,0.0,0
0.477,111,2,0.0,0
0.478,112,-1,0.0,0
0.478,113,-5,0.0,0
0.478,114,-7,0.0,0
0.502,115,-10,0.0,0
0.502,116,-13,0.0,0
0.502,117,-15,0.0,0
0.502,118,-18,0.0,0
0.517,119,-20,0.0,0
0.517,120,-21,0.0,0
0.518,121,-23,0.0,0
0.518,122,-26,0.0,0
0.537,123,-33,0.0,0
0.537,124,-45,0.0,0
0.537,125,-60,0.0,0
0.537,126,-77,0.0,0
0.562,127,-86,0.0,0
0.562,128,-77,0.0,0
0.562,129,-38,0.0,0
0.562,130,15,0.0,0
0.577,131,85,0.0,0
0.577,132,152,0.0,0
0.577,133,210,0.0,0
0.577,134,260,0.0,0
0.607,135,287,0.0,0
0.607,136,279,0.0,0
0.607,137,235,0.0,0
0.607,138,160,0.0,0
0.622,139,79,0.0,0
0.622,140,13,0.0,0
0.622,141,-30,0.0,0
0.622,142,-53,0.0,0
0.637,143,-62,0.0,0
0.637,144,-66,0.0,0
0.637,145,-69,0.0,0
0.637,146,-73,0.0,0
0.667,147,-75,0.0,0
0.667,148,-77,0.0,0
0.667,149,-75,0.0,0
0.667,150,-73,0.0,0
0.684,151,-71,0.0,0
0.684,152,-69,0.0,0
0.684,153,-68,0.0,0
0.684,154,-65,0.0,0
0.712,155,-63,0.0,0
0.712,156,-61,0.0,0
0.712,157,-59,0.0,0
0.712,158,-57,0.0,0
0.728,159,-55,0.0,0
0.728,160,-52,0.0,0
0.728,161,-48,0.0,0
0.728,162,-45,0.0,0
0.743,163,-42,0.0,0
0.743,164,-39,0.0,0
0.743,165,-37,0.0,0
0.743,166,-35,0.0,0
0.776,167,-32,0.0,0
0.776,168,-30,0.0,0
0.776,169,-28,0.0,0
0.776,170,-25,0.0,0
0.788,171,-23,0.0,0
0.788,172,-20,0.0,0
0.788,173,-17,0.0,0
0.788,174,-14,0.0,0
0.819,175,-12,0.0,0
0.819,176,-9,0.0,0
0.819,177,-8,0.0,0
0.819,178,-6,0.0,0
0.819,179,-5,0.0,0
0.834,180,-3,0.0,0
0.834,181,-2,0.0,0
0.834,182,0,0.0,1
0.834,183,0,0.0,1
0.834,184,0,0.0,1
0.834,185,0,0.0,1
0.834,186,0,0.0,1
0.862,187,0,0.0,1
0.862,188,0,0.0,1
0.862,189,0,0.0,1
0.862,190,-1,0.0,0
0.863,191,-1,0.0,0
0.878,192,-2,0.0,0
0.878,193,-3,0.0,0
0.878,194,-5,0.0,0
0.878,195,-8,0.0,0
0.878,196,-10,0.0,0
0.892,197,-12,0.0,0
0.892,198,-15,0.0,0
0.892,199,-17,0.0,0
0.892,200,-19,0.0,0
0.908,201,-21,0.0,0
0.908,202,-22,0.0,0
0.908,203,-23,0.0,0
0.908,204,-23,0.0,0
0.938,205,-25,0.0,0
0.938,206,-25,0.0,0
0.938,207,-26,0.0,0
0.938,208,-27,0.0,0
0.967,209,-25,0.0,0
0.967,210,-24,0.0,0
0.967,211,-22,0.0,0
0.967,212,-21,0.0,0
0.981,213,-21,0.0,0
0.981,214,-20,0.0,0
0.981,215,-19,0.0,0
0.981,216,-19,0.0,0
0.997,217,-17,0.0,0
0.997,218,-16,0.0,0
0.997,219,-14,0.0,0
0.997,220,-12,0.0,0
1.012,221,-12,0.0,0
1.012,222,-11,0.0,0
1.012,223,-10,0.0,0
1.012,224,-8,0.0,0
1.042,225,-6,0.0,0
1.042,226,-5,0.0,0
1.042,227,-5,0.0,0
1.042,228,-5,0.0,0
1.042,229,-5,0.0,0
1.064,230,-5,0.0,0
1.064,231,-5,0.0,0
1.064,232,-5,0.0,0
1.064,233,-4,0.0,0
1.064,234,-4,0.0,0
1.083,235,-5,0.0,0
1.083,236,-6,0.0,0
1.083,237,-6,0.0,0
1.083,238,-7,0.0,0
1.083,239,-7,0.0,0
1.102,240,-7,0.0,0
1.102,241,-6,0.0,0
1.102,242,-7,0.0,0
1.102,243,-7,0.0,0
1.102,244,-8,0.0,0
1.122,245,-8,0.0,0
1.122,246,-8,0.0,0
1.122,247,-8,0.0,0
1.122,248,-8,0.0,0
1.122,249,-8,0.0,0
1.142,250,-8,0.0,0
1.142,251,-8,0.0,0
1.142,252,-8,0.0,0
1.142,253,-8,0.0,0
1.142,254,-8,0.0,0
1.172,255,-8,0.0,0
1.172,256,-8,0.0,0
1.172,257,-8,0.0,0
1.172,258,-7,0.0,0
1.172,259,-7,0.0,0
1.185,260,-7,0.0,0
1.185,261,-7,0.0,0
1.185,262,-7,0.0,0
1.185,263,-6,0.0,0
1.185,264,-6,0.0,0
1.206,265,-5,0.0,0
1.206,266,-5,0.0,0
1.206,267,-5,0.0,0
1.206,268,-5,0.0,0
1.206,269,-5,0.0,0
1.222,270,-6,0.0,0
1.222,271,-6,0.0,0
1.222,272,-6,0.0,0
1.222,273,-5,0.0,0
1.222,274,-4,0.0,0
1.245,275,-2,0.0,0
1.245,276,-1,0.0,0
1.245,277,0,0.0,1
1.245,278,0,0.0,1
1.245,279,3,0.0,0
1.245,280,7,0.0,0
1.272,281,13,0.0,0
1.272,282,20,0.0,0
1.272,283,27,0.0,0
1.272,284,34,0.0,0
1.272,285,40,0.0,0
1.292,286,45,0.0,0
1.292,287,48,17.0,0
1.292,288,47,17.0,0
1.292,289,45,17.0,0
1.292,290,41,17.0,0
1.315,291,35,17.0,0
1.315,292,30,17.0,0
1.315,293,23,17.0,0
1.315,294,17,17.0,0
1.315,295,11,17.0,0
1.315,296,6,17.0,0
1.332,297,1,17.0,0
1.332,298,-3,17.0,0
1.332,299,-7,17.0,0
1.332,300,-10,17.0,0
1.352,301,-13,17.0,0
1.353,302,-15,17.0,0
1.353,303,-18,17.0,0
1.353,304,-20,17.0,0
1.373,305,-21,17.0,0
1.373,306,-22,17.0,0
1.373,307,-23,17.0,0
1.373,308,-25,17.0,0
1.392,309,-29,17.0,0
1.392,310,-39,17.0,0
1.392,311,-52,17.0,0
1.392,312,-71,17.0,0
1.415,313,-86,17.0,0
1.415,314,-87,17.0,0
1.415,315,-63,17.0,0
1.415,316,-13,17.0,0
1.415,317,50,17.0,0
1.432,318,121,17.0,0
1.433,319,166,17.0,0
1.433,320,173,17.0,0
1.433,321,143,17.0,0
1.452,322,80,17.0,0
1.452,323,35,17.0,0
1.452,324,-7,17.0,0
1.452,325,-16,17.0,0
1.474,326,-24,17.0,0
1.474,327,-34,17.0,0
1.474,328,-42,17.0,0
1.474,329,-48,17.0,0
1.502,330,-52,17.0,0
1.502,331,-54,17.0,0
1.502,332,-55,17.0,0
1.502,333,-56,17.0,0
1.523,334,-56,17.0,0
1.523,335,-55,17.0,0
1.523,336,-52,17.0,0
1.523,337,-50,17.0,0
1.543,338,-48,17.0,0
1.543,339,-46,17.0,0
1.543,340,-44,17.0,0
1.543,341,-42,17.0,0
1.564,342,-39,17.0,0
1.564,343,-36,17.0,0
1.564,344,-34,17.0,0
1.564,345,-32,17.0,0
1.592,346,-30,17.0,0
1.592,347,-28,17.0,0
1.592,348,-27,17.0,0
1.592,349,-24,17.0,0
1.603,350,-22,17.0,0
1.603,351,-18,17.0,0
1.604,352,-15,17.0,0
1.604,353,-12,17.0,0
1.622,354,-10,17.0,0
1.622,355,-8,17.0,0
1.622,356,-5,17.0,0
1.622,357,-3,17.0,0
1.622,358,0,17.0,1
1.622,359,1,17.0,0
1.644,360,2,17.0,0
1.644,361,4,17.0,0
1.644,362,6,17.0,0
1.644,363,8,17.0,0
1.644,364,10,17.0,0
1.644,365,12,17.0,0
1.664,366,13,17.0,0
1.664,367,14,17.0,0
1.664,368,15,17.0,0
1.664,369,16,17.0,0
1.664,370,16,17.0,0
1.683,371,16,17.0,0
1.683,372,15,17.0,0
1.683,373,14,17.0,0
1.683,374,13,17.0,0
1.683,375,13,17.0,0
1.712,376,12,17.0,0
1.712,377,10,17.0,0
1.712,378,8,17.0,0
1.712,379,6,17.0,0
1.712,380,4,17.0,0
1.712,381,3,17.0,0
1.736,382,1,17.0,0
1.736,383,-1,17.0,0
1.736,384,-4,17.0,0
1.736,385,-6,17.0,0
1.736,386,-8,17.0,0
1.752,387,-9,17.0,0
1.752,388,-11,17.0,0
1.752,389,-12,17.0,0
1.752,390,-13,17.0,0
1.773,391,-13,17.0,0
1.773,392,-14,17.0,0
1.773,393,-14,17.0,0
1.773,394,-15,17.0,0
1.795,395,-15,17.0,0
1.795,396,-14,17.0,0
1.795,397,-14,17.0,0
1.795,398,-13,17.0,0
1.812,399,-12,17.0,0
1.812,400,-11,17.0,0
1.812,401,-10,17.0,0
1.812,402,-7,17.0,0
1.833,403,-5,17.0,0
1.833,404,-2,17.0,0
1.833,405,0,17.0,1
1.833,406,1,17.0,0
1.833,407,2,17.0,0
1.833,408,3,17.0,0
1.833,409,5,17.0,0
1.852,410,6,17.0,0
1.852,411,7,17.0,0
1.852,412,6,17.0,0
1.852,413,7,17.0,0
1.852,414,7,17.0,0
1.852,415,7,17.0,0
1.872,416,8,17.0,0
1.873,417,8,17.0,0
1.873,418,8,17.0,0
1.873,419,9,17.0,0
1.873,420,8,17.0,0
1.873,421,8,17.0,0
1.873,422,7,17.0,0
1.893,423,7,17.0,0
1.893,424,7,17.0,0
1.893,425,6,17.0,0
1.893,426,6,17.0,0
1.893,427,6,17.0,0
1.893,428,6,17.0,0
1.893,429,5,17.0,0
1.913,430,5,17.0,0
1.913,431,4,17.0,0
1.913,432,3,17.0,0
1.913,433,2,17.0,0
1.913,434,2,17.0,0
1.913,435,2,17.0,0
1.943,436,2,17.0,0
1.943,437,2,17.0,0
1.943,438,2,17.0,0
1.943,439,3,17.0,0
1.943,440,3,17.0,0
1.943,441,2,17.0,0
1.943,442,2,17.0,0
1.965,443,1,17.0,0
1.965,444,2,17.0,0
1.965,445,2,17.0,0
1.965,446,2,17.0,0
1.965,447,2,17.0,0
1.965,448,1,17.0,0
1.965,449,1,17.0,0
1.993,450,0,17.0,1
1.993,451,0,17.0,1
1.993,452,0,17.0,1
1.993,453,1,17.0,0
1.993,454,1,17.0,0
1.993,455,0,17.0,1
2.013,456,0,17.0,1
2.013,457,0,17.0,1
2.013,458,0,17.0,1
2.013,459,0,17.0,1
2.013,460,0,17.0,1
2.013,461,0,17.0,1
2.013,462,0,17.0,1
2.042,463,0,17.0,1
2.042,464,0,17.0,1
2.042,465,-1,17.0,0
2.042,466,-2,17.0,0
2.042,467,-2,17.0,0
2.063,468,-2,17.0,0
2.063,469,-1,17.0,0
2.063,470,0,17.0,1
2.063,471,0,17.0,1
2.063,472,2,17.0,0
2.063,473,3,17.0,0
2.063,474,4,17.0,0
2.092,475,5,17.0,0
2.092,476,6,17.0,0
2.092,477,9,17.0,0
2.092,478,13,17.0,0
2.092,479,18,17.0,0
2.126,480,24,17.0,0
2.126,481,31,17.0,0
2.126,482,37,17.0,0
2.126,483,42,17.0,0
2.126,484,46,30.8,0
2.132,485,46,30.8,0
2.132,486,45,30.8,0
2.132,487,42,30.8,0
2.132,488,38,30.8,0
2.132,489,34,30.8,0
2.155,490,28,30.8,0
2.155,491,22,30.8,0
2.155,492,16,30.8,0
2.155,493,10,30.8,0
2.155,494,4,30.8,0
2.155,495,0,30.8,1
2.172,496,-4,30.8,0
2.172,497,-8,30.8,0
2.172,498,-12,30.8,0
2.172,499,-14,30.8,0
2.196,500,-17,30.8,0
2.197,501,-20,30.8,0
2.197,502,-22,30.8,0
2.197,503,-23,30.8,0
2.225,504,-25,30.8,0
2.225,505,-26,30.8,0
2.225,506,-28,30.8,0
2.225,507,-32,30.8,0
2.232,508,-40,30.8,0
2.232,509,-53,30.8,0
2.232,510,-69,30.8,0
2.232,511,-84,30.8,0
2.254,512,-90,30.8,0
2.254,513,-76,30.8,0
2.254,514,-31,30.8,0
2.254,515,26,30.8,0
2.254,516,99,30.8,0
2.282,517,165,30.8,0
2.282,518,222,30.8,0
2.282,519,263,30.8,0
2.282,520,273,30.8,0
2.305,521,250,30.8,0
2.305,522,195,30.8,0
2.305,523,124,30.8,0
2.305,524,55,30.8,0
2.323,525,-3,30.8,0
2.323,526,-45,30.8,0
2.323,527,-71,30.8,0
2.323,528,-84,30.8,0
2.343,529,-88,30.8,0
2.343,530,-89,30.8,0
2.343,531,-90,30.8,0
2.343,532,-92,30.8,0
2.362,533,-92,30.8,0
2.362,534,-91,30.8,0
2.362,535,-88,30.8,0
2.362,536,-85,30.8,0
2.382,537,-82,30.8,0
2.382,538,-80,30.8,0
2.382,539,-78,30.8,0
2.382,540,-76,30.8,0
2.402,541,-73,30.8,0
2.402,542,-71,30.8,0
2.402,543,-69,30.8,0
2.402,544,-67,30.8,0
2.423,545,-65,30.8,0
2.423,546,-62,30.8,0
2.423,547,-61,30.8,0
2.423,548,-58,30.8,0
2.444,549,-54,30.8,0
2.444,550,-51,30.8,0
2.444,551,-48,30.8,0
2.444,552,-46,30.8,0
2.464,553,-44,30.8,0
2.464,554,-41,30.8,0
2.464,555,-38,30.8,0
2.464,556,-35,30.8,0
2.482,557,-32,30.8,0
2.482,558,-29,30.8,0
2.482,559,-26,30.8,0
2.482,560,-22,30.8,0
2.512,561,-18,30.8,0
2.512,562,-15,30.8,0
2.512,563,-13,30.8,0
2.512,564,-10,30.8,0
2.532,565,-8,30.8,0
2.532,566,-6,30.8,0
2.532,567,-4,30.8,0
2.532,568,-3,30.8,0
2.532,569,-1,30.8,0
2.553,570,0,30.8,1
2.553,571,0,30.8,1
2.553,572,1,30.8,0
2.553,573,2,30.8,0
2.553,574,2,30.8,0
2.553,575,2,30.8,0
2.553,576,1,30.8,0
2.573,577,0,30.8,1
2.573,578,-3,30.8,0
2.573,579,-6,30.8,0
2.573,580,-8,30.8,0
2.573,581,-10,30.8,0
2.596,582,-13,30.8,0
2.596,583,-15,30.8,0
2.596,584,-18,30.8,0
2.596,585,-20,30.8,0
2.613,586,-22,30.8,0
2.613,587,-24,30.8,0
2.613,588,-25,30.8,0
2.613,589,-27,30.8,0
2.632,590,-28,30.8,0
2.632,591,-29,30.8,0
2.632,592,-30,30.8,0
2.632,593,-30,30.8,0
2.653,594,-30,30.8,0
2.653,595,-28,30.8,0
2.653,596,-27,30.8,0
2.653,597,-27,30.8,0
2.673,598,-26,30.8,0
2.673,599,-25,30.8,0
2.673,600,-23,30.8,0
2.673,601,-22,30.8,0
2.693,602,-19,30.8,0
2.693,603,-17,30.8,0
2.693,604,-13,30.8,0
2.693,605,-10,30.8,0
2.722,606,-8,30.8,0
2.722,607,-7,30.8,0
2.722,608,-5,30.8,0
2.722,609,-4,30.8,0
2.722,610,-2,30.8,0
2.742,611,-1,30.8,0
2.742,612,0,30.8,1
2.742,613,0,30.8,1
2.742,614,0,30.8,1
2.742,615,0,30.8,1
2.742,616,0,30.8,1
2.763,617,0,30.8,1
2.763,618,0,30.8,1
2.763,619,0,30.8,1
2.763,620,0,30.8,1
2.763,621,0,30.8,1
2.763,622,0,30.8,1
2.763,623,0,30.8,1
2.783,624,0,30.8,1
2.784,625,0,30.8,1
2.784,626,-1,30.8,0
2.784,627,0,30.8,1
2.784,628,0,30.8,1
2.784,629,0,30.8,1
2.803,630,0,30.8,1
2.803,631,0,30.8,1
2.803,632,1,30.8,0
2.803,633,2,30.8,0
2.803,634,3,30.8,0
2.803,635,3,30.8,0
2.803,636,3,30.8,0
2.823,637,3,30.8,0
2.823,638,4,30.8,0
2.823,639,4,30.8,0
2.823,640,4,30.8,0
2.823,641,4,30.8,0
2.823,642,5,30.8,0
2.823,643,5,30.8,0
2.843,644,6,30.8,0
2.843,645,6,30.8,0
2.843,646,5,30.8,0
2.843,647,6,30.8,0
2.843,648,6,30.8,0
2.843,649,7,30.8,0
2.872,650,7,30.8,0
2.872,651,8,30.8,0
2.872,652,8,30.8,0
2.872,653,9,30.8,0
2.872,654,9,30.8,0
2.872,655,9,30.8,0
2.872,656,8,30.8,0
2.892,657,8,30.8,0
2.892,658,8,30.8,0
2.892,659,9,30.8,0
2.892,660,9,30.8,0
2.892,661,10,30.8,0
2.892,662,11,30.8,0
2.913,663,12,30.8,0
2.913,664,13,30.8,0
2.913,665,15,30.8,0
2.913,666,16,30.8,0
2.913,667,17,30.8,0
2.932,668,18,30.8,0
2.932,669,20,30.8,0
2.932,670,23,30.8,0
2.932,671,27,30.8,0
2.932,672,32,30.8,0
2.967,673,39,30.8,0
2.967,674,46,30.8,0
2.967,675,53,40.9,0
2.967,676,58,40.9,0
2.967,677,61,40.9,0
2.982,678,62,40.9,0
2.982,679,61,40.9,0
2.982,680,59,40.9,0
2.982,681,55,40.9,0
2.982,682,51,40.9,0
3.002,683,46,40.9,0
3.002,684,40,40.9,0
3.002,685,34,40.9,0
3.002,686,27,40.9,0
3.002,687,22,40.9,0
3.023,688,17,40.9,0
3.023,689,13,40.9,0
3.023,690,9,40.9,0
3.023,691,5,40.9,0
3.023,692,2,40.9,0
3.023,693,0,40.9,1
3.042,694,-1,40.9,0
3.042,695,-3,40.9,0
3.042,696,-5,40.9,0
3.042,697,-6,40.9,0
3.042,698,-7,40.9,0
3.064,699,-9,40.9,0
3.064,700,-13,40.9,0
3.064,701,-23,40.9,0
3.064,702,-36,40.9,0
3.084,703,-53,40.9,0
3.084,704,-67,40.9,0
3.084,705,-69,40.9,0
3.084,706,-49,40.9,0
3.102,707,-2,40.9,0
3.102,708,57,40.9,0
3.102,709,128,40.9,0
3.102,710,190,40.9,0
3.123,711,244,40.9,0
3.123,712,280,40.9,0
3.123,713,286,40.9,0
3.123,714,259,40.9,0
3.142,715,203,40.9,0
3.142,716,133,40.9,0
3.142,717,66,40.9,0
3.142,718,10,40.9,0
3.142,719,-29,40.9,0
3.172,720,-55,40.9,0
3.173,721,-67,40.9,0
3.173,722,-71,40.9,0
3.173,723,-71,40.9,0
3.192,724,-72,40.9,0
3.192,725,-73,40.9,0
3.193,726,-75,40.9,0
3.193,727,-74,40.9,0
3.212,728,-72,40.9,0
3.212,729,-70,40.9,0
3.212,730,-68,40.9,0
3.212,731,-66,40.9,0
3.232,732,-63,40.9,0
3.232,733,-60,40.9,0
3.232,734,-57,40.9,0
3.232,735,-53,40.9,0
3.255,736,-49,40.9,0
3.255,737,-46,40.9,0
3.255,738,-43,40.9,0
3.255,739,-41,40.9,0
3.272,740,-38,40.9,0
3.273,741,-36,40.9,0
3.273,742,-34,40.9,0
3.273,743,-31,40.9,0
3.292,744,-29,40.9,0
3.292,745,-26,40.9,0
3.292,746,-24,40.9,0
3.293,747,-20,40.9,0
3.313,748,-17,40.9,0
3.313,749,-14,40.9,0
3.313,750,-10,40.9,0
3.313,751,-7,40.9,0
3.332,752,-5,40.9,0
3.332,753,-2,40.9,0
3.332,754,0,40.9,1
3.332,755,1,40.9,0
3.332,756,4,40.9,0
3.332,757,6,40.9,0
3.352,758,8,40.9,0
3.352,759,10,40.9,0
3.352,760,11,40.9,0
3.352,761,13,40.9,0
3.352,762,15,40.9,0
3.382,763,16,40.9,0
3.382,764,17,40.9,0
3.382,765,18,40.9,0
3.382,766,19,40.9,0
3.382,767,20,40.9,0
3.405,768,20,40.9,0
3.405,769,21,40.9,0
3.405,770,21,40.9,0
3.405,771,20,40.9,0
3.405,772,19,40.9,0
3.422,773,18,40.9,0
3.422,774,16,40.9,0
3.422,775,15,40.9,0
3.422,776,13,40.9,0
3.422,777,12,40.9,0
3.442,778,11,40.9,0
3.442,779,10,40.9,0
3.442,780,8,40.9,0
3.442,781,6,40.9,0
3.442,782,4,40.9,0
3.442,783,2,40.9,0
3.442,784,2,40.9,0
3.463,785,1,40.9,0
3.463,786,0,40.9,1
3.463,787,0,40.9,1
3.463,788,-1,40.9,0
3.463,789,-1,40.9,0
3.483,790,-1,40.9,0
3.483,791,-1,40.9,0
3.483,792,-1,40.9,0
3.483,793,-1,40.9,0
3.483,794,0,40.9,1
3.483,795,0,40.9,1
3.502,796,2,40.9,0
3.502,797,3,40.9,0
3.502,798,3,40.9,0
3.502,799,5,40.9,0
3.502,800,6,40.9,0
3.502,801,8,40.9,0
3.502,802,9,40.9,0
3.522,803,9,40.9,0
3.522,804,11,40.9,0
3.522,805,12,40.9,0
3.522,806,14,40.9,0
3.522,807,15,40.9,0
3.542,808,16,40.9,0
3.542,809,17,40.9,0
3.542,810,18,40.9,0
3.542,811,18,40.9,0
3.542,812,18,40.9,0
3.562,813,18,40.9,0
3.562,814,17,40.9,0
3.562,815,17,40.9,0
3.562,816,17,40.9,0
3.562,817,16,40.9,0
3.582,818,15,40.9,0
3.582,819,15,40.9,0
3.582,820,14,40.9,0
3.582,821,14,40.9,0
3.582,822,13,40.9,0
3.615,823,12,40.9,0
3.615,824,12,40.9,0
3.615,825,11,40.9,0
3.615,826,10,40.9,0
3.615,827,9,40.9,0
3.633,828,9,40.9,0
3.633,829,8,40.9,0
3.633,830,8,40.9,0
3.633,831,8,40.9,0
3.633,832,7,40.9,0
3.633,833,7,40.9,0
3.633,834,7,40.9,0
3.657,835,7,40.9,0
3.657,836,7,40.9,0
3.657,837,7,40.9,0
3.657,838,7,40.9,0
3.657,839,7,40.9,0
3.657,840,7,40.9,0
3.657,841,7,40.9,0
3.675,842,7,40.9,0
3.675,843,7,40.9,0
3.675,844,7,40.9,0
3.675,845,6,40.9,0
3.675,846,6,40.9,0
3.675,847,6,40.9,0
3.693,848,6,40.9,0
3.693,849,6,40.9,0
3.693,850,7,40.9,0
3.693,851,7,40.9,0
3.693,852,6,40.9,0
3.693,853,6,40.9,0
3.693,854,6,40.9,0
3.723,855,6,40.9,0
3.723,856,6,40.9,0
3.723,857,6,40.9,0
3.723,858,6,40.9,0
3.723,859,6,40.9,0
3.723,860,6,40.9,0
3.723,861,6,40.9,0
3.759,862,6,40.9,0
3.759,863,6,40.9,0
3.759,864,7,40.9,0
3.759,865,7,40.9,0
3.759,866,8,40.9,0
3.759,867,8,40.9,0
3.772,868,7,40.9,0
3.772,869,8,40.9,0
3.772,870,9,40.9,0
3.772,871,9,40.9,0
3.772,872,9,40.9,0
3.772,873,10,40.9,0
3.795,874,11,40.9,0
3.795,875,12,40.9,0
3.795,876,13,40.9,0
3.795,877,15,40.9,0
3.795,878,16,40.9,0
3.812,879,17,40.9,0
3.812,880,19,40.9,0
3.814,881,21,40.9,0
3.814,882,25,40.9,0
3.814,883,30,40.9,0
3.833,884,38,40.9,0
3.833,885,45,40.9,0
3.833,886,52,48.0,0
3.833,887,57,48.0,0
3.833,888,60,48.0,0
3.863,889,62,48.0,0
3.863,890,62,48.0,0
3.863,891,60,48.0,0
3.863,892,56,48.0,0
3.863,893,51,48.0,0
3.886,894,46,48.0,0
3.886,895,40,48.0,0
3.886,896,34,48.0,0
3.886,897,28,48.0,0
3.886,898,22,48.0,0
3.905,899,17,48.0,0
3.905,900,12,48.0,0
3.905,901,7,48.0,0
3.905,902,3,48.0,0
3.905,903,0,48.0,1
3.905,904,-3,48.0,0
3.926,905,-5,48.0,0
3.926,906,-7,48.0,0
3.926,907,-9,48.0,0
3.926,908,-11,48.0,0
3.926,909,-13,48.0,0
3.945,910,-15,48.0,0
3.945,911,-19,48.0,0
3.945,912,-28,48.0,0
3.945,913,-41,48.0,0
3.966,914,-58,48.0,0
3.966,915,-75,48.0,0
3.966,916,-83,48.0,0
3.966,917,-71,48.0,0
3.984,918,-29,48.0,0
3.984,919,26,48.0,0
3.984,920,99,48.0,0
3.984,921,164,48.0,0
4.008,922,220,48.0,0
4.008,923,270,48.0,0
4.008,924,299,48.0,0
4.008,925,292,48.0,0
4.026,926,250,48.0,0
4.026,927,174,48.0,0
4.026,928,92,48.0,0
4.026,929,25,48.0,0
4.042,930,-18,48.0,0
4.043,931,-41,48.0,0
4.043,932,-51,48.0,0
4.043,933,-56,48.0,0
4.073,934,-61,48.0,0
4.073,935,-67,48.0,0
4.073,936,-72,48.0,0
4.073,937,-76,48.0,0
4.093,938,-78,48.0,0
4.093,939,-77,48.0,0
4.093,940,-76,48.0,0
4.093,941,-75,48.0,0
4.112,942,-73,48.0,0
4.112,943,-70,48.0,0
4.112,944,-68,48.0,0
4.112,945,-66,48.0,0
4.133,946,-65,48.0,0
4.133,947,-63,48.0,0
4.133,948,-61,48.0,0
4.133,949,-58,48.0,0
4.156,950,-55,48.0,0
4.156,951,-52,48.0,0
4.156,952,-49,48.0,0
4.156,953,-47,48.0,0
4.172,954,-44,48.0,0
4.172,955,-41,48.0,0
4.172,956,-39,48.0,0
4.172,957,-36,48.0,0
4.193,958,-34,48.0,0
4.193,959,-31,48.0,0
4.193,960,-28,48.0,0
4.193,961,-26,48.0,0
4.222,962,-23,48.0,0
4.222,963,-19,48.0,0
4.222,964,-17,48.0,0
4.222,965,-14,48.0,0
4.232,966,-12,48.0,0
4.232,967,-10,48.0,0
4.232,968,-9,48.0,0
4.232,969,-7,48.0,0
4.232,970,-5,48.0,0
4.253,971,-3,48.0,0
4.253,972,-2,48.0,0
4.253,973,-1,48.0,0
4.253,974,0,48.0,1
4.253,975,0,48.0,1
4.253,976,0,48.0,1
4.273,977,0,48.0,1
4.273,978,0,48.0,1
4.273,979,0,48.0,1
4.273,980,-2,48.0,0
4.273,981,-3,48.0,0
4.273,982,-4,48.0,0
4.302,983,-6,48.0,0
4.302,984,-7,48.0,0
4.302,985,-8,48.0,0
4.302,986,-10,48.0,0
4.322,987,-11,48.0,0
4.322,988,-13,48.0,0
4.322,989,-14,48.0,0
4.322,990,-16,48.0,0
4.342,991,-17,48.0,0
4.342,992,-18,48.0,0
4.342,993,-20,48.0,0
4.342,994,-22,48.0,0
4.366,995,-23,48.0,0
4.366,996,-24,48.0,0
4.366,997,-25,48.0,0
4.366,998,-26,48.0,0
4.383,999,-26,48.0,0
4.383,1000,-27,48.0,0
4.383,1001,-27,48.0,0
4.383,1002,-26,48.0,0
4.403,1003,-24,48.0,0
4.403,1004,-23,48.0,0
4.403,1005,-21,48.0,0
4.403,1006,-20,48.0,0
4.422,1007,-19,48.0,0
4.422,1008,-18,48.0,0
4.422,1009,-16,48.0,0
4.422,1010,-15,48.0,0
4.443,1011,-13,48.0,0
4.443,1012,-13,48.0,0
4.443,1013,-11,48.0,0
4.443,1014,-10,48.0,0
4.463,1015,-9,48.0,0
4.463,1016,-8,48.0,0
4.463,1017,-8,48.0,0
4.463,1018,-7,48.0,0
4.463,1019,-7,48.0,0
4.482,1020,-7,48.0,0
4.482,1021,-7,48.0,0
4.482,1022,-7,48.0,0
4.482,1023,-6,48.0,0
4.482,1024,-6,48.0,0
4.513,1025,-6,48.0,0
4.513,1026,-7,48.0,0
4.513,1027,-7,48.0,0
4.513,1028,-7,48.0,0
4.513,1029,-7,48.0,0
4.533,1030,-7,48.0,0
4.537,1031,-8,48.0,0
4.537,1032,-8,48.0,0
4.537,1033,-8,48.0,0
4.537,1034,-7,48.0,0
4.552,1035,-7,48.0,0
4.552,1036,-7,48.0,0
4.553,1037,-8,48.0,0
4.553,1038,-8,48.0,0
4.553,1039,-7,48.0,0
4.573,1040,-7,48.0,0
4.573,1041,-7,48.0,0
4.573,1042,-7,48.0,0
4.573,1043,-6,48.0,0
4.573,1044,-6,48.0,0
4.595,1045,-6,48.0,0
4.595,1046,-5,48.0,0
4.595,1047,-4,48.0,0
4.595,1048,-3,48.0,0
4.595,1049,-3,48.0,0
4.614,1050,-4,48.0,0
4.614,1051,-4,48.0,0
4.614,1052,-4,48.0,0
4.614,1053,-3,48.0,0
4.614,1054,-3,48.0,0
4.643,1055,-3,48.0,0
4.643,1056,-3,48.0,0
4.643,1057,-3,48.0,0
4.643,1058,-2,48.0,0
4.643,1059,-2,48.0,0
4.652,1060,-2,48.0,0
4.652,1061,-1,48.0,0
4.652,1062,-1,48.0,0
4.652,1063,-1,48.0,0
4.652,1064,-1,48.0,0
4.672,1065,-1,48.0,0
4.672,1066,-1,48.0,0
4.672,1067,-1,48.0,0
4.672,1068,-1,48.0,0
4.672,1069,-1,48.0,0
4.692,1070,-1,48.0,0
4.692,1071,-2,48.0,0
4.692,1072,-2,48.0,0
4.692,1073,-2,48.0,0
4.692,1074,-1,48.0,0
4.713,1075,-2,48.0,0
4.713,1076,-2,48.0,0
4.713,1077,-2,48.0,0
4.713,1078,-2,48.0,0
4.713,1079,-2,48.0,0
4.742,1080,-1,48.0,0
4.743,1081,0,48.0,1
4.743,1082,2,48.0,0
4.743,1083,4,48.0,0
4.743,1084,5,48.0,0
4.743,1085,8,48.0,0
4.743,1086,11,48.0,0
4.763,1087,17,48.0,0
4.763,1088,23,48.0,0
4.763,1089,30,48.0,0
4.763,1090,38,48.0,0
4.764,1091,43,48.0,0
4.786,1092,48,52.1,0
4.786,1093,50,52.1,0
4.786,1094,50,52.1,0
4.786,1095,49,52.1,0
4.786,1096,46,52.1,0
4.805,1097,42,52.1,0
4.805,1098,37,52.1,0
4.805,1099,31,52.1,0
4.805,1100,25,52.1,0
4.805,1101,19,52.1,0
4.825,1102,14,52.1,0
4.825,1103,10,52.1,0
4.826,1104,5,52.1,0
4.826,1105,1,52.1,0
4.826,1106,-2,52.1,0
4.845,1107,-5,52.1,0
4.845,1108,-8,52.1,0
4.845,1109,-10,52.1,0
4.845,1110,-13,52.1,0
4.865,1111,-15,52.1,0
4.865,1112,-16,52.1,0
4.865,1113,-18,52.1,0
4.865,1114,-19,52.1,0
4.882,1115,-22,52.1,0
4.882,1116,-27,52.1,0
4.882,1117,-36,52.1,0
4.882,1118,-51,52.1,0
4.902,1119,-51,52.1,0
4.902,1120,-38,52.1,0
4.902,1121,7,52.1,0
4.902,1122,66,52.1,0
4.902,1123,135,52.1,0
4.926,1124,196,52.1,0
4.926,1125,249,52.1,0
4.926,1126,220,52.1,0
4.926,1127,197,52.1,0
4.943,1128,112,52.1,0
4.943,1129,51,52.1,0
4.943,1130,15,52.1,0
4.943,1131,-3,52.1,0
4.943,1132,-13,52.1,0
4.973,1133,-23,52.1,0
4.973,1134,-34,52.1,0
4.973,1135,-44,52.1,0
4.973,1136,-52,52.1,0
4.992,1137,-57,52.1,0
4.992,1138,-60,52.1,0
4.992,1139,-62,52.1,0
4.993,1140,-62,52.1,0
5.015,1141,-63,52.1,0
5.015,1142,-63,52.1,0
5.015,1143,-63,52.1,0
5.015,1144,-63,52.1,0
5.034,1145,-62,52.1,0
5.034,1146,-61,52.1,0
5.034,1147,-59,52.1,0
5.034,1148,-57,52.1,0
5.054,1149,-55,52.1,0
5.054,1150,-54,52.1,0
5.054,1151,-52,52.1,0
5.054,1152,-50,52.1,0
5.074,1153,-48,52.1,0
5.075,1154,-45,52.1,0
5.075,1155,-43,52.1,0
5.075,1156,-40,52.1,0
5.094,1157,-37,52.1,0
5.094,1158,-34,52.1,0
5.094,1159,-31,52.1,0
5.094,1160,-29,52.1,0
5.112,1161,-26,52.1,0
5.112,1162,-24,52.1,0
5.112,1163,-21,52.1,0
5.112,1164,-18,52.1,0
5.133,1165,-15,52.1,0
5.133,1166,-13,52.1,0
5.133,1167,-11,52.1,0
5.133,1168,-10,52.1,0
5.152,1169,-8,52.1,0
5.152,1170,-7,52.1,0
5.152,1171,-6,52.1,0
5.152,1172,-4,52.1,0
5.152,1173,-3,52.1,0
5.172,1174,-3,52.1,0
5.172,1175,-2,52.1,0
5.172,1176,-1,52.1,0
5.172,1177,-1,52.1,0
5.172,1178,-2,52.1,0
5.202,1179,-2,52.1,0
5.202,1180,-4,52.1,0
5.202,1181,-5,52.1,0
5.202,1182,-6,52.1,0
5.202,1183,-7,52.1,0
5.225,1184,-9,52.1,0
5.225,1185,-11,52.1,0
5.225,1186,-13,52.1,0
5.225,1187,-15,52.1,0
5.242,1188,-17,52.1,0
5.242,1189,-18,52.1,0
5.242,1190,-20,52.1,0
5.242,1191,-22,52.1,0
5.265,1192,-24,52.1,0
5.265,1193,-25,52.1,0
5.265,1194,-26,52.1,0
5.265,1195,-26,52.1,0
5.282,1196,-26,52.1,0
5.282,1197,-25,52.1,0
5.282,1198,-25,52.1,0
5.282,1199,-25,52.1,0
5.306,1200,-25,52.1,0
5.306,1201,-25,52.1,0
5.306,1202,-23,52.1,0
5.306,1203,-22,52.1,0
5.322,1204,-21,52.1,0
5.322,1205,-20,52.1,0
5.322,1206,-18,52.1,0
5.322,1207,-16,52.1,0
5.342,1208,-15,52.1,0
5.342,1209,-13,52.1,0
5.342,1210,-11,52.1,0
5.343,1211,-10,52.1,0
5.362,1212,-8,52.1,0
5.362,1213,-8,52.1,0
5.362,1214,-7,52.1,0
5.362,1215,-7,52.1,0
5.362,1216,-6,52.1,0
5.393,1217,-5,52.1,0
5.393,1218,-5,52.1,0
5.393,1219,-5,52.1,0
5.393,1220,-5,52.1,0
5.393,1221,-5,52.1,0
5.402,1222,-5,52.1,0
5.402,1223,-4,52.1,0
5.402,1224,-4,52.1,0
5.402,1225,-4,52.1,0
5.402,1226,-4,52.1,0
5.441,1227,-4,52.1,0
5.441,1228,-5,52.1,0
5.441,1229,-5,52.1,0
5.441,1230,-5,52.1,0
5.441,1231,-5,52.1,0
5.452,1232,-4,52.1,0
5.452,1233,-3,52.1,0
5.452,1234,-2,52.1,0
5.452,1235,-2,52.1,0
5.452,1236,-2,52.1,0
5.472,1237,-2,52.1,0
5.472,1238,-2,52.1,0
5.472,1239,-2,52.1,0
5.472,1240,-1,52.1,0
5.472,1241,-1,52.1,0
5.492,1242,0,52.1,1
5.492,1243,0,52.1,1
5.492,1244,0,52.1,1
5.492,1245,-1,52.1,0
5.492,1246,-1,52.1,0
5.492,1247,-1,52.1,0
5.512,1248,-1,52.1,0
5.512,1249,0,52.1,1
5.513,1250,0,52.1,1
5.513,1251,0,52.1,1
5.513,1252,-1,52.1,0
5.513,1253,0,52.1,1
5.532,1254,0,52.1,1
5.532,1255,0,52.1,1
5.532,1256,0,52.1,1
5.532,1257,1,52.1,0
5.532,1258,1,52.1,0
5.532,1259,1,52.1,0
5.552,1260,0,52.1,1
5.552,1261,0,52.1,1
5.552,1262,-1,52.1,0
5.552,1263,-2,52.1,0
5.552,1264,-1,52.1,0
5.552,1265,-1,52.1,0
5.572,1266,-1,52.1,0
5.572,1267,-1,52.1,0
5.572,1268,-1,52.1,0
5.572,1269,-1,52.1,0
5.572,1270,-1,52.1,0
5.602,1271,-2,52.1,0
5.602,1272,-2,52.1,0
5.602,1273,-2,52.1,0
5.602,1274,-2,52.1,0
5.602,1275,-2,52.1,0
5.613,1276,-2,52.1,0
5.613,1277,-1,52.1,0
5.613,1278,-1,52.1,0
5.613,1279,-1,52.1,0
5.613,1280,-1,52.1,0
5.644,1281,-2,52.1,0
5.644,1282,-2,52.1,0
5.644,1283,-2,52.1,0
5.644,1284,-1,52.1,0
5.644,1285,0,52.1,1
5.666,1286,0,52.1,1
5.666,1287,0,52.1,1
5.666,1288,1,52.1,0
5.666,1289,2,52.1,0
5.666,1290,3,52.1,0
5.666,1291,4,52.1,0
5.666,1292,5,52.1,0
5.682,1293,6,52.1,0
5.682,1294,9,52.1,0
5.682,1295,14,52.1,0
5.682,1296,19,52.1,0
5.682,1297,26,52.1,0
5.707,1298,32,52.1,0
5.707,1299,38,52.1,0
5.707,1300,43,52.1,0
5.707,1301,46,55.0,0
5.707,1302,48,55.0,0
5.724,1303,47,55.0,0
5.724,1304,44,55.0,0
5.724,1305,40,55.0,0
5.724,1306,34,55.0,0
5.724,1307,29,55.0,0
5.743,1308,23,55.0,0
5.743,1309,17,55.0,0
5.743,1310,12,55.0,0
5.743,1311,7,55.0,0
5.743,1312,3,55.0,0
5.743,1313,-1,55.0,0
5.764,1314,-4,55.0,0
5.764,1315,-7,55.0,0
5.764,1316,-10,55.0,0
5.764,1317,-12,55.0,0
5.785,1318,-15,55.0,0
5.785,1319,-17,55.0,0
5.785,1320,-18,55.0,0
5.785,1321,-20,55.0,0
5.804,1322,-22,55.0,0
5.804,1323,-25,55.0,0
5.804,1324,-30,55.0,0
5.804,1325,-39,55.0,0
5.822,1326,-53,55.0,0
5.822,1327,-69,55.0,0
5.822,1328,-84,55.0,0
5.822,1329,-87,55.0,0
5.845,1330,-66,55.0,0
5.845,1331,-19,55.0,0
5.845,1332,42,55.0,0
5.845,1333,115,55.0,0
5.876,1334,179,55.0,0
5.876,1335,234,55.0,0
5.876,1336,244,55.0,0
5.876,1337,234,55.0,0
5.893,1338,176,55.0,0
5.893,1339,106,55.0,0
5.893,1340,37,55.0,0
5.893,1341,-17,55.0,0
5.912,1342,-55,55.0,0
5.912,1343,-74,55.0,0
5.912,1344,-83,55.0,0
5.912,1345,-86,55.0,0
5.935,1346,-88,55.0,0
5.935,1347,-91,55.0,0
5.935,1348,-93,55.0,0
5.935,1349,-93,55.0,0
5.952,1350,-90,55.0,0
5.952,1351,-86,55.0,0
5.953,1352,-82,55.0,0
5.953,1353,-79,55.0,0
5.974,1354,-76,55.0,0
5.974,1355,-73,55.0,0
5.974,1356,-70,55.0,0
5.974,1357,-68,55.0,0
5.992,1358,-66,55.0,0
5.992,1359,-64,55.0,0
5.992,1360,-62,55.0,0
5.992,1361,-60,55.0,0
6.023,1362,-56,55.0,0
6.023,1363,-52,55.0,0
6.023,1364,-49,55.0,0
6.023,1365,-46,55.0,0
6.046,1366,-43,55.0,0
6.046,1367,-42,55.0,0
6.046,1368,-39,55.0,0
6.046,1369,-37,55.0,0
6.052,1370,-33,55.0,0
6.052,1371,-30,55.0,0
6.052,1372,-27,55.0,0
6.052,1373,-25,55.0,0
6.072,1374,-22,55.0,0
6.073,1375,-20,55.0,0
6.073,1376,-17,55.0,0
6.073,1377,-14,55.0,0
6.102,1378,-12,55.0,0
6.102,1379,-9,55.0,0
6.102,1380,-6,55.0,0
6.102,1381,-4,55.0,0
6.102,1382,-2,55.0,0
6.125,1383,-2,55.0,0
6.125,1384,-1,55.0,0
6.125,1385,0,55.0,1
6.125,1386,0,55.0,1
6.125,1387,0,55.0,1
6.125,1388,1,55.0,0
6.125,1389,1,55.0,0
6.142,1390,1,55.0,0
6.142,1391,0,55.0,1
6.142,1392,0,55.0,1
6.142,1393,-1,55.0,0
6.142,1394,-1,55.0,0
6.173,1395,-2,55.0,0
6.173,1396,-3,55.0,0
6.173,1397,-4,55.0,0
6.173,1398,-6,55.0,0
6.173,1399,-7,55.0,0
6.182,1400,-8,55.0,0
6.182,1401,-10,55.0,0
6.182,1402,-10,55.0,0
6.182,1403,-12,55.0,0
6.206,1404,-13,55.0,0
6.206,1405,-13,55.0,0
6.206,1406,-14,55.0,0
6.206,1407,-14,55.0,0
6.222,1408,-14,55.0,0
6.222,1409,-14,55.0,0
6.222,1410,-14,55.0,0
6.222,1411,-13,55.0,0
6.242,1412,-13,55.0,0
6.242,1413,-13,55.0,0
6.242,1414,-13,55.0,0
6.242,1415,-12,55.0,0
6.266,1416,-11,55.0,0
6.266,1417,-10,55.0,0
6.266,1418,-8,55.0,0
6.266,1419,-5,55.0,0
6.266,1420,-3,55.0,0
6.283,1421,-1,55.0,0
6.283,1422,0,55.0,1
6.283,1423,2,55.0,0
6.283,1424,4,55.0,0
6.283,1425,5,55.0,0
6.283,1426,7,55.0,0
6.283,1427,7,55.0,0
6.316,1428,8,55.0,0
6.316,1429,8,55.0,0
6.316,1430,8,55.0,0
6.316,1431,9,55.0,0
6.316,1432,9,55.0,0
6.316,1433,10,55.0,0
6.332,1434,10,55.0,0
6.332,1435,11,55.0,0
6.332,1436,11,55.0,0
6.332,1437,11,55.0,0
6.332,1438,10,55.0,0
6.352,1439,10,55.0,0
6.353,1440,9,55.0,0
6.353,1441,9,55.0,0
6.353,1442,9,55.0,0
6.353,1443,10,55.0,0
6.353,1444,10,55.0,0
6.373,1445,11,55.0,0
6.373,1446,10,55.0,0
6.373,1447,9,55.0,0
6.373,1448,10,55.0,0
6.373,1449,10,55.0,0
6.396,1450,11,55.0,0
6.396,1451,11,55.0,0
6.396,1452,10,55.0,0
6.396,1453,11,55.0,0
6.396,1454,11,55.0,0
6.413,1455,11,55.0,0
6.413,1456,9,55.0,0
6.413,1457,8,55.0,0
6.413,1458,9,55.0,0
6.413,1459,9,55.0,0
6.413,1460,10,55.0,0
6.433,1461,10,55.0,0
6.433,1462,9,55.0,0
6.433,1463,10,55.0,0
6.433,1464,10,55.0,0
6.433,1465,11,55.0,0
6.453,1466,11,55.0,0
6.453,1467,11,55.0,0
6.453,1468,12,55.0,0
6.453,1469,12,55.0,0
6.453,1470,13,55.0,0
6.473,1471,13,55.0,0
6.473,1472,13,55.0,0
6.473,1473,15,55.0,0
6.473,1474,15,55.0,0
6.473,1475,16,55.0,0
6.493,1476,15,55.0,0
6.493,1477,14,55.0,0
6.493,1478,15,55.0,0
6.493,1479,15,55.0,0
6.493,1480,16,55.0,0
6.515,1481,15,55.0,0
6.515,1482,15,55.0,0
6.515,1483,16,55.0,0
6.515,1484,16,55.0,0
6.515,1485,17,55.0,0
6.543,1486,16,55.0,0
6.543,1487,16,55.0,0
6.543,1488,17,55.0,0
6.543,1489,17,55.0,0
6.543,1490,18,55.0,0
6.566,1491,18,55.0,0
6.566,1492,17,55.0,0
6.566,1493,18,55.0,0
6.566,1494,19,55.0,0
6.566,1495,20,55.0,0
6.582,1496,19,55.0,0
6.583,1497,19,55.0,0
6.583,1498,19,55.0,0
6.583,1499,21,55.0,0
6.583,1500,22,55.0,0
6.603,1501,23,55.0,0
6.603,1502,24,55.0,0
6.603,1503,24,55.0,0
6.603,1504,26,55.0,0
6.603,1505,29,55.0,0
6.627,1506,34,55.0,0
6.627,1507,41,55.0,0
6.627,1508,47,57.6,0
6.627,1509,54,57.6,0
6.627,1510,58,57.6,0
6.642,1511,62,57.6,0
6.642,1512,63,57.6,0
6.642,1513,64,57.6,0
6.642,1514,62,57.6,0
6.642,1515,59,57.6,0
6.662,1516,54,57.6,0
6.663,1517,49,57.6,0
6.663,1518,43,57.6,0
6.663,1519,37,57.6,0
6.663,1520,32,57.6,0
6.687,1521,26,57.6,0
6.688,1522,21,57.6,0
6.688,1523,16,57.6,0
6.688,1524,11,57.6,0
6.688,1525,8,57.6,0
6.688,1526,4,57.6,0
6.702,1527,2,57.6,0
6.702,1528,0,57.6,1
6.702,1529,-1,57.6,0
6.702,1530,-3,57.6,0
6.702,1531,-4,57.6,0
6.725,1532,-6,57.6,0
6.725,1533,-8,57.6,0
6.725,1534,-11,57.6,0
6.725,1535,-18,57.6,0
6.745,1536,-30,57.6,0
6.745,1537,-45,57.6,0
6.745,1538,-61,57.6,0
6.745,1539,-67,57.6,0
6.772,1540,-54,57.6,0
6.772,1541,-11,57.6,0
6.772,1542,44,57.6,0
6.772,1543,115,57.6,0
6.772,1544,179,57.6,0
6.793,1545,234,57.6,0
6.793,1546,280,57.6,0
6.793,1547,299,57.6,0
6.793,1548,287,57.6,0
6.814,1549,256,57.6,0
6.814,1550,206,57.6,0
6.814,1551,165,57.6,0
6.814,1552,132,57.6,0
6.836,1553,105,57.6,0
6.836,1554,80,57.6,0
6.836,1555,57,57.6,0
6.836,1556,37,57.6,0
6.854,1557,21,57.6,0
6.854,1558,9,57.6,0
6.854,1559,0,57.6,1
6.854,1560,-8,57.6,0
6.854,1561,-15,57.6,0
6.874,1562,-22,57.6,0
6.874,1563,-26,57.6,0
6.874,1564,-30,57.6,0
6.874,1565,-33,57.6,0
6.892,1566,-35,57.6,0
6.892,1567,-37,57.6,0
6.892,1568,-38,57.6,0
6.892,1569,-39,57.6,0
6.916,1570,-39,57.6,0
6.916,1571,-39,57.6,0
6.916,1572,-39,57.6,0
6.916,1573,-38,57.6,0
6.933,1574,-37,57.6,0
6.933,1575,-37,57.6,0
6.933,1576,-36,57.6,0
6.933,1577,-34,57.6,0
6.955,1578,-32,57.6,0
6.955,1579,-29,57.6,0
6.955,1580,-28,57.6,0
6.955,1581,-26,57.6,0
6.974,1582,-22,57.6,0
6.974,1583,-20,57.6,0
6.974,1584,-17,57.6,0
6.974,1585,-15,57.6,0
7.003,1586,-14,57.6,0
7.003,1587,-10,57.6,0
7.003,1588,-8,57.6,0
7.003,1589,-5,57.6,0
7.003,1590,-4,57.6,0
7.024,1591,-3,57.6,0
7.024,1592,-2,57.6,0
7.024,1593,-2,57.6,0
7.024,1594,-2,57.6,0
7.024,1595,-1,57.6,0
7.044,1596,0,57.6,1
7.044,1597,0,57.6,1
7.044,1598,1,57.6,0
7.044,1599,1,57.6,0
7.044,1600,1,57.6,0
7.045,1601,2,57.6,0
7.045,1602,2,57.6,0
7.065,1603,2,57.6,0
7.065,1604,2,57.6,0
7.065,1605,1,57.6,0
7.065,1606,0,57.6,1
7.065,1607,0,57.6,1
7.065,1608,-2,57.6,0
7.085,1609,-3,57.6,0
7.085,1610,-5,57.6,0
7.085,1611,-6,57.6,0
7.085,1612,-8,57.6,0
7.085,1613,-9,57.6,0
7.106,1614,-10,57.6,0
7.106,1615,-11,57.6,0
7.106,1616,-12,57.6,0
7.106,1617,-13,57.6,0
7.123,1618,-13,57.6,0
7.123,1619,-13,57.6,0
7.123,1620,-13,57.6,0
7.123,1621,-13,57.6,0
7.142,1622,-13,57.6,0
7.142,1623,-13,57.6,0
7.142,1624,-12,57.6,0
7.142,1625,-11,57.6,0
7.162,1626,-10,57.6,0
7.162,1627,-9,57.6,0
7.162,1628,-7,57.6,0
7.162,1629,-6,57.6,0
7.162,1630,-3,57.6,0
7.183,1631,-1,57.6,0
7.183,1632,0,57.6,1
7.183,1633,2,57.6,0
7.183,1634,3,57.6,0
7.183,1635,5,57.6,0
7.183,1636,6,57.6,0
7.218,1637,7,57.6,0
7.218,1638,8,57.6,0
7.218,1639,9,57.6,0
7.218,1640,10,57.6,0
7.218,1641,10,57.6,0
7.218,1642,11,57.6,0
7.234,1643,11,57.6,0
7.234,1644,11,57.6,0
7.234,1645,10,57.6,0
7.234,1646,10,57.6,0
7.234,1647,9,57.6,0
7.252,1648,9,57.6,0
7.252,1649,8,57.6,0
7.252,1650,8,57.6,0
7.252,1651,7,57.6,0
7.252,1652,7,57.6,0
7.252,1653,7,57.6,0
7.252,1654,6,57.6,0
7.272,1655,5,57.6,0
7.272,1656,4,57.6,0
7.272,1657,4,57.6,0
7.272,1658,4,57.6,0
7.272,1659,3,57.6,0
7.272,1660,3,57.6,0
7.272,1661,2,57.6,0
7.292,1662,3,57.6,0
7.292,1663,3,57.6,0
7.292,1664,4,57.6,0
7.292,1665,4,57.6,0
7.292,1666,4,57.6,0
7.292,1667,3,57.6,0
7.312,1668,4,57.6,0
7.312,1669,4,57.6,0
7.312,1670,4,57.6,0
7.312,1671,3,57.6,0
7.312,1672,3,57.6,0
7.312,1673,4,57.6,0
7.312,1674,4,57.6,0
7.332,1675,4,57.6,0
7.332,1676,3,57.6,0
7.332,1677,4,57.6,0
7.332,1678,4,57.6,0
7.332,1679,4,57.6,0
7.332,1680,4,57.6,0
7.332,1681,3,57.6,0
7.363,1682,3,57.6,0
7.363,1683,3,57.6,0
7.363,1684,3,57.6,0
7.363,1685,3,57.6,0
7.363,1686,3,57.6,0
7.363,1687,3,57.6,0
7.392,1688,3,57.6,0
7.392,1689,4,57.6,0
7.392,1690,4,57.6,0
7.392,1691,4,57.6,0
7.392,1692,4,57.6,0
7.392,1693,4,57.6,0
7.392,1694,4,57.6,0
7.412,1695,4,57.6,0
7.412,1696,4,57.6,0
7.412,1697,5,57.6,0
7.412,1698,5,57.6,0
7.412,1699,5,57.6,0
7.412,1700,5,57.6,0
7.412,1701,4,57.6,0
7.450,1702,4,57.6,0
7.450,1703,4,57.6,0
7.450,1704,4,57.6,0
7.450,1705,4,57.6,0
7.450,1706,3,57.6,0
7.450,1707,3,57.6,0
7.472,1708,3,57.6,0
7.472,1709,3,57.6,0
7.472,1710,3,57.6,0
7.472,1711,3,57.6,0
7.472,1712,2,57.6,0
7.472,1713,2,57.6,0
7.472,1714,1,57.6,0
7.493,1715,1,57.6,0
7.493,1716,3,57.6,0
7.493,1717,5,57.6,0
7.493,1718,6,57.6,0
7.493,1719,8,57.6,0
7.493,1720,9,57.6,0
7.522,1721,10,57.6,0
7.522,1722,14,57.6,0
7.522,1723,20,57.6,0
7.522,1724,28,57.6,0
7.522,1725,35,57.6,0
7.543,1726,42,57.6,0
7.543,1727,47,59.5,0
7.543,1728,51,59.5,0
7.543,1729,54,59.5,0
7.543,1730,54,59.5,0
7.563,1731,52,59.5,0
7.563,1732,48,59.5,0
7.563,1733,43,59.5,0
7.563,1734,38,59.5,0
7.563,1735,32,59.5,0
7.582,1736,26,59.5,0
7.582,1737,20,59.5,0
7.582,1738,15,59.5,0
7.582,1739,9,59.5,0
7.582,1740,5,59.5,0
7.582,1741,1,59.5,0
7.603,1742,-2,59.5,0
7.603,1743,-6,59.5,0
7.603,1744,-10,59.5,0
7.603,1745,-12,59.5,0
7.622,1746,-15,59.5,0
7.622,1747,-17,59.5,0
7.622,1748,-19,59.5,0
7.622,1749,-20,59.5,0
7.645,1750,-22,59.5,0
7.645,1751,-26,59.5,0
7.645,1752,-34,59.5,0
7.645,1753,-46,59.5,0
7.665,1754,-64,59.5,0
7.665,1755,-82,59.5,0
7.665,1756,-92,59.5,0
7.665,1757,-84,59.5,0
7.685,1758,-44,59.5,0
7.685,1759,9,59.5,0
7.685,1760,81,59.5,0
7.685,1761,147,59.5,0
7.685,1762,206,59.5,0
7.712,1763,257,59.5,0
7.712,1764,292,59.5,0
7.712,1765,291,59.5,0
7.712,1766,255,59.5,0
7.736,1767,181,59.5,0
7.736,1768,95,59.5,0
7.736,1769,23,59.5,0
7.736,1770,-24,59.5,0
7.753,1771,-48,59.5,0
7.753,1772,-57,59.5,0
7.753,1773,-62,59.5,0
7.753,1774,-68,59.5,0
7.773,1775,-75,59.5,0
7.773,1776,-82,59.5,0
7.773,1777,-86,59.5,0
7.773,1778,-88,59.5,0
7.793,1779,-87,59.5,0
7.793,1780,-87,59.5,0
7.793,1781,-85,59.5,0
7.793,1782,-83,59.5,0
7.813,1783,-82,59.5,0
7.813,1784,-81,59.5,0
7.813,1785,-79,59.5,0
7.813,1786,-77,59.5,0
7.832,1787,-75,59.5,0
7.832,1788,-74,59.5,0
7.832,1789,-72,59.5,0
7.832,1790,-67,59.5,0
7.856,1791,-66,59.5,0
7.856,1792,-61,59.5,0
7.856,1793,-59,59.5,0
7.856,1794,-56,59.5,0
7.875,1795,-50,59.5,0
7.875,1796,-48,59.5,0
7.875,1797,-43,59.5,0
7.875,1798,-42,59.5,0
7.896,1799,-40,59.5,0
7.896,1800,-36,59.5,0
7.896,1801,-34,59.5,0
7.896,1802,-30,59.5,0
7.915,1803,-28,59.5,0
7.915,1804,-27,59.5,0
7.915,1805,-25,59.5,0
7.915,1806,-22,59.5,0
7.942,1807,-20,59.5,0
7.942,1808,-17,59.5,0
7.942,1809,-16,59.5,0
7.942,1810,-14,59.5,0
7.963,1811,-13,59.5,0
7.963,1812,-12,59.5,0
7.963,1813,-10,59.5,0
7.963,1814,-9,59.5,0
7.963,1815,-8,59.5,0
7.985,1816,-8,59.5,0
7.985,1817,-7,59.5,0
7.985,1818,-7,59.5,0
7.985,1819,-7,59.5,0
7.985,1820,-9,59.5,0
8.005,1821,-11,59.5,0
8.005,1822,-12,59.5,0
8.005,1823,-14,59.5,0
8.005,1824,-15,59.5,0
8.022,1825,-17,59.5,0
8.022,1826,-18,59.5,0
8.022,1827,-20,59.5,0
8.022,1828,-21,59.5,0
8.043,1829,-23,59.5,0
8.043,1830,-24,59.5,0
8.043,1831,-24,59.5,0
8.043,1832,-25,59.5,0
8.062,1833,-26,59.5,0
8.062,1834,-26,59.5,0
8.062,1835,-26,59.5,0
8.062,1836,-26,59.5,0
8.082,1837,-25,59.5,0
8.082,1838,-24,59.5,0
8.082,1839,-23,59.5,0
8.082,1840,-22,59.5,0
8.102,1841,-21,59.5,0
8.102,1842,-17,59.5,0
8.102,1843,-16,59.5,0
8.102,1844,-13,59.5,0
8.122,1845,-12,59.5,0
8.122,1846,-11,59.5,0
8.122,1847,-10,59.5,0
8.122,1848,-8,59.5,0
8.142,1849,-8,59.5,0
8.142,1850,-7,59.5,0
8.142,1851,-6,59.5,0
8.142,1852,-6,59.5,0
8.142,1853,-5,59.5,0
8.175,1854,-4,59.5,0
8.175,1855,0,59.5,1
8.175,1856,-1,59.5,0
8.175,1857,1,59.5,0
8.175,1858,0,59.5,1
8.175,1859,-1,59.5,0
8.202,1860,-3,59.5,0
8.202,1861,-4,59.5,0
8.202,1862,-5,59.5,0
8.202,1863,-5,59.5,0
8.202,1864,-6,59.5,0
8.213,1865,-6,59.5,0
8.213,1866,-7,59.5,0
8.213,1867,-7,59.5,0
8.213,1868,-8,59.5,0
8.213,1869,-8,59.5,0
8.234,1870,-5,59.5,0
8.234,1871,-5,59.5,0
8.234,1872,-3,59.5,0
8.234,1873,-4,59.5,0
8.234,1874,-4,59.5,0
8.255,1875,-5,59.5,0
8.255,1876,-5,59.5,0
8.255,1877,-5,59.5,0
8.255,1878,-5,59.5,0
8.255,1879,-5,59.5,0
8.272,1880,-3,59.5,0
8.273,1881,-4,59.5,0
8.273,1882,-2,59.5,0
8.273,1883,-3,59.5,0
8.273,1884,-4,59.5,0
8.295,1885,-1,59.5,0
8.295,1886,-1,59.5,0
8.295,1887,0,59.5,1
8.295,1888,0,59.5,1
8.295,1889,-1,59.5,0
8.295,1890,0,59.5,1
8.312,1891,0,59.5,1
8.312,1892,1,59.5,0
8.312,1893,0,59.5,1
8.312,1894,0,59.5,1
8.312,1895,2,59.5,0
8.312,1896,1,59.5,0
8.332,1897,3,59.5,0
8.332,1898,2,59.5,0
8.332,1899,1,59.5,0
8.332,1900,4,59.5,0
8.332,1901,3,59.5,0
8.333,1902,5,59.5,0
8.333,1903,3,59.5,0
8.352,1904,2,59.5,0
8.352,1905,5,59.5,0
8.352,1906,4,59.5,0
8.352,1907,5,59.5,0
8.352,1908,4,59.5,0
8.352,1909,2,59.5,0
8.352,1910,4,59.5,0
8.385,1911,3,59.5,0
8.385,1912,4,59.5,0
8.385,1913,3,59.5,0
8.385,1914,2,59.5,0
8.385,1915,4,59.5,0
8.385,1916,3,59.5,0
8.405,1917,4,59.5,0
8.405,1918,3,59.5,0
8.405,1919,2,59.5,0
8.405,1920,2,59.5,0
8.405,1921,3,59.5,0
8.405,1922,4,59.5,0
8.405,1923,6,59.5,0
8.422,1924,8,59.5,0
8.422,1925,9,59.5,0
8.422,1926,10,59.5,0
8.422,1927,12,59.5,0
8.422,1928,14,59.5,0
8.445,1929,18,59.5,0
8.445,1930,24,59.5,0
8.446,1931,30,59.5,0
8.446,1932,37,59.5,0
8.446,1933,43,59.5,0
8.463,1934,47,61.3,0
8.463,1935,49,61.3,0
8.463,1936,50,61.3,0
8.463,1937,49,61.3,0
8.463,1938,46,61.3,0
8.483,1939,42,61.3,0
8.483,1940,38,61.3,0
8.483,1941,32,61.3,0
8.483,1942,27,61.3,0
8.483,1943,21,61.3,0
8.502,1944,15,61.3,0
8.502,1945,10,61.3,0
8.502,1946,6,61.3,0
8.502,1947,1,61.3,0
8.502,1948,-1,61.3,0
8.502,1949,-5,61.3,0
8.525,1950,-8,61.3,0
8.525,1951,-11,61.3,0
8.525,1952,-13,61.3,0
8.525,1953,-15,61.3,0
8.542,1954,-17,61.3,0
8.542,1955,-18,61.3,0
8.542,1956,-20,61.3,0
8.542,1957,-22,61.3,0
8.575,1958,-27,61.3,0
8.575,1959,-35,61.3,0
8.575,1960,-50,61.3,0
8.575,1961,-68,61.3,0
8.595,1962,-86,61.3,0
8.595,1963,-92,61.3,0
8.595,1964,-75,61.3,0
8.595,1965,-28,61.3,0
8.625,1966,30,61.3,0
8.625,1967,104,61.3,0
8.625,1968,168,61.3,0
8.625,1969,225,61.3,0
8.632,1970,274,61.3,0
8.633,1971,299,61.3,0
8.633,1972,288,61.3,0
8.633,1973,239,61.3,0
8.652,1974,160,61.3,0
8.652,1975,79,61.3,0
8.652,1976,16,61.3,0
8.652,1977,-21,61.3,0
8.652,1978,-39,61.3,0
8.672,1979,-46,61.3,0
8.672,1980,-51,61.3,0
8.672,1981,-57,61.3,0
8.672,1982,-62,61.3,0
8.692,1983,-67,61.3,0
8.692,1984,-69,61.3,0
8.692,1985,-71,61.3,0
8.692,1986,-72,61.3,0
8.712,1987,-72,61.3,0
8.712,1988,-72,61.3,0
8.712,1989,-71,61.3,0
8.712,1990,-69,61.3,0
8.732,1991,-68,61.3,0
8.732,1992,-66,61.3,0
8.732,1993,-64,61.3,0
8.732,1994,-62,61.3,0
8.752,1995,-60,61.3,0
8.752,1996,-59,61.3,0
8.752,1997,-57,61.3,0
8.752,1998,-55,61.3,0
8.782,1999,-54,61.3,0
8.782,2000,-52,61.3,0
8.782,2001,-50,61.3,0
8.782,2002,-48,61.3,0
8.803,2003,-45,61.3,0
8.803,2004,-42,61.3,0
8.803,2005,-39,61.3,0
8.803,2006,-36,61.3,0
8.823,2007,-33,61.3,0
8.823,2008,-30,61.3,0
8.823,2009,-27,61.3,0
8.823,2010,-23,61.3,0
8.842,2011,-20,61.3,0
8.842,2012,-18,61.3,0
8.842,2013,-12,61.3,0
8.842,2014,-11,61.3,0
8.863,2015,-5,61.3,0
8.863,2016,-3,61.3,0
8.863,2017,-2,61.3,0
8.863,2018,-1,61.3,0
8.863,2019,-1,61.3,0
8.884,2020,0,61.3,1
8.884,2021,0,61.3,1
8.884,2022,0,61.3,1
8.884,2023,0,61.3,1
8.884,2024,0,61.3,1
8.884,2025,-1,61.3,0
8.902,2026,-2,61.3,0
8.902,2027,-3,61.3,0
8.902,2028,-3,61.3,0
8.902,2029,-5,61.3,0
8.902,2030,-6,61.3,0
8.932,2031,-7,61.3,0
8.932,2032,-8,61.3,0
8.932,2033,-10,61.3,0
8.932,2034,-12,61.3,0
8.945,2035,-14,61.3,0
8.945,2036,-15,61.3,0
8.945,2037,-17,61.3,0
8.945,2038,-18,61.3,0
8.965,2039,-20,61.3,0
8.965,2040,-21,61.3,0
8.965,2041,-21,61.3,0
8.965,2042,-21,61.3,0
8.983,2043,-21,61.3,0
8.983,2044,-22,61.3,0
8.983,2045,-21,61.3,0
8.983,2046,-21,61.3,0
9.012,2047,-20,61.3,0
9.012,2048,-19,61.3,0
9.012,2049,-18,61.3,0
9.012,2050,-16,61.3,0
9.032,2051,-15,61.3,0
9.032,2052,-13,61.3,0
9.032,2053,-12,61.3,0
9.032,2054,-11,61.3,0
9.053,2055,-10,61.3,0
9.053,2056,-9,61.3,0
9.053,2057,-8,61.3,0
9.053,2058,-6,61.3,0
9.053,2059,-4,61.3,0
9.072,2060,-3,61.3,0
9.072,2061,-1,61.3,0
9.072,2062,0,61.3,1
9.072,2063,0,61.3,1
9.072,2064,0,61.3,1
9.072,2065,0,61.3,1
9.096,2066,0,61.3,1
9.096,2067,0,61.3,1
9.096,2068,0,61.3,1
9.096,2069,0,61.3,1
9.096,2070,-1,61.3,0
9.096,2071,-1,61.3,0
9.115,2072,-1,61.3,0
9.115,2073,-1,61.3,0
9.115,2074,-1,61.3,0
9.115,2075,-1,61.3,0
9.115,2076,-1,61.3,0
9.136,2077,-2,61.3,0
9.136,2078,-2,61.3,0
9.136,2079,-3,61.3,0
9.136,2080,-3,61.3,0
9.136,2081,-3,61.3,0
9.155,2082,-3,61.3,0
9.155,2083,-3,61.3,0
9.155,2084,-3,61.3,0
9.155,2085,-4,61.3,0
9.155,2086,-4,61.3,0
9.175,2087,-5,61.3,0
9.175,2088,-5,61.3,0
9.175,2089,-5,61.3,0
9.175,2090,-6,61.3,0
9.176,2091,-6,61.3,0
9.195,2092,-5,61.3,0
9.195,2093,-5,61.3,0
9.195,2094,-5,61.3,0
9.195,2095,-5,61.3,0
9.195,2096,-5,61.3,0
9.215,2097,-5,61.3,0
9.215,2098,-5,61.3,0
9.215,2099,-5,61.3,0
9.215,2100,-5,61.3,0
9.216,2101,-6,61.3,0
9.243,2102,-6,61.3,0
9.243,2103,-7,61.3,0
9.243,2104,-8,61.3,0
9.243,2105,-8,61.3,0
9.243,2106,-8,61.3,0
9.263,2107,-7,61.3,0
9.263,2108,-7,61.3,0
9.263,2109,-7,61.3,0
9.263,2110,-7,61.3,0
9.263,2111,-7,61.3,0
9.282,2112,-7,61.3,0
9.282,2113,-7,61.3,0
9.282,2114,-7,61.3,0
9.282,2115,-7,61.3,0
9.282,2116,-7,61.3,0
9.305,2117,-8,61.3,0
9.305,2118,-8,61.3,0
9.305,2119,-5,61.3,0
9.305,2120,-5,61.3,0
9.305,2121,-3,61.3,0
9.325,2122,-4,61.3,0
9.325,2123,-4,61.3,0
9.325,2124,-1,61.3,0
9.325,2125,-2,61.3,0
9.325,2126,0,61.3,1
9.342,2127,-2,61.3,0
9.342,2128,-2,61.3,0
9.342,2129,-2,61.3,0
9.342,2130,0,61.3,1
9.343,2131,0,61.3,1
9.343,2132,2,61.3,0
9.362,2133,3,61.3,0
9.362,2134,5,61.3,0
9.362,2135,8,61.3,0
9.362,2136,12,61.3,0
9.362,2137,18,61.3,0
9.362,2138,25,61.3,0
9.383,2139,32,61.3,0
9.383,2140,37,61.3,0
9.383,2141,40,61.3,0
9.383,2142,41,61.3,0
9.383,2143,41,62.0,0
9.403,2144,39,62.0,0
9.403,2145,35,62.0,0
9.403,2146,31,62.0,0
9.403,2147,25,62.0,0
9.403,2148,19,62.0,0
9.423,2149,14,62.0,0
9.423,2150,8,62.0,0
9.423,2151,2,62.0,0
9.423,2152,-2,62.0,0
9.423,2153,-6,62.0,0
9.455,2154,-10,62.0,0
9.455,2155,-14,62.0,0
9.455,2156,-17,62.0,0
9.455,2157,-21,62.0,0
9.474,2158,-23,62.0,0
9.474,2159,-25,62.0,0
9.474,2160,-26,62.0,0
9.474,2161,-28,62.0,0
9.492,2162,-30,62.0,0
9.492,2163,-33,62.0,0
9.492,2164,-45,62.0,0
9.492,2165,-57,62.0,0
9.512,2166,-75,62.0,0
9.512,2167,-83,62.0,0
9.512,2168,-71,62.0,0
9.512,2169,-29,62.0,0
9.532,2170,26,62.0,0
9.532,2171,93,62.0,0
9.532,2172,137,62.0,0
9.532,2173,146,62.0,0
9.532,2174,121,62.0,0
9.553,2175,69,62.0,0
9.553,2176,9,62.0,0
9.553,2177,-45,62.0,0
9.553,2178,-86,62.0,0
9.572,2179,-112,62.0,0
9.572,2180,-124,62.0,0
9.572,2181,-124,62.0,0
9.592,2182,-122,62.0,0
9.592,2183,-117,62.0,0
9.592,2184,-113,62.0,0
9.592,2185,-110,62.0,0
9.615,2186,-105,62.0,0
9.615,2187,-98,62.0,0
9.615,2188,-93,62.0,0
9.615,2189,-87,62.0,0
9.635,2190,-83,62.0,0
9.635,2191,-80,62.0,0
9.635,2192,-74,62.0,0
9.635,2193,-71,62.0,0
9.653,2194,-65,62.0,0
9.653,2195,-62,62.0,0
9.653,2196,-59,62.0,0
9.653,2197,-56,62.0,0
9.682,2198,-52,62.0,0
9.682,2199,-48,62.0,0
9.682,2200,-44,62.0,0
9.682,2201,-40,62.0,0
9.705,2202,-36,62.0,0
9.706,2203,-32,62.0,0
9.706,2204,-29,62.0,0
9.706,2205,-26,62.0,0
9.723,2206,-24,62.0,0
9.723,2207,-21,62.0,0
9.723,2208,-18,62.0,0
9.723,2209,-14,62.0,0
9.745,2210,-11,62.0,0
9.745,2211,-8,62.0,0
9.745,2212,-5,62.0,0
9.745,2213,-2,62.0,0
9.745,2214,0,62.0,1
9.776,2215,2,62.0,0
9.776,2216,5,62.0,0
9.776,2217,7,62.0,0
9.776,2218,9,62.0,0
9.776,2219,10,62.0,0
9.776,2220,11,62.0,0
9.783,2221,12,62.0,0
9.783,2222,13,62.0,0
9.783,2223,13,62.0,0
9.783,2224,12,62.0,0
9.783,2225,13,62.0,0
9.803,2226,12,62.0,0
9.803,2227,12,62.0,0
9.803,2228,11,62.0,0
9.803,2229,9,62.0,0
9.803,2230,8,62.0,0
9.823,2231,6,62.0,0
9.823,2232,5,62.0,0
9.823,2233,7,62.0,0
9.823,2234,5,62.0,0
9.823,2235,5,62.0,0
9.823,2236,2,62.0,0
9.823,2237,-1,62.0,0
9.842,2238,-3,62.0,0
9.842,2239,-5,62.0,0
9.842,2240,-6,62.0,0
9.843,2241,-7,62.0,0
9.843,2242,-8,62.0,0
9.864,2243,-8,62.0,0
9.864,2244,-9,62.0,0
9.864,2245,-9,62.0,0
9.864,2246,-10,62.0,0
9.882,2247,-10,62.0,0
9.882,2248,-10,62.0,0
9.882,2249,-10,62.0,0
9.882,2250,-9,62.0,0
9.882,2251,-8,62.0,0
9.913,2252,-7,62.0,0
9.913,2253,-6,62.0,0
9.913,2254,-5,62.0,0
9.913,2255,-3,62.0,0
9.913,2256,-2,62.0,0
9.934,2257,-1,62.0,0
9.934,2258,0,62.0,1
9.934,2259,0,62.0,1
9.934,2260,2,62.0,0
9.934,2261,4,62.0,0
9.934,2262,5,62.0,0
9.953,2263,6,62.0,0
9.953,2264,6,62.0,0
9.953,2265,6,62.0,0
9.953,2266,7,62.0,0
9.953,2267,8,62.0,0
9.953,2268,11,62.0,0
9.972,2269,11,62.0,0
9.972,2270,14,62.0,0
9.973,2271,14,62.0,0
9.973,2272,14,62.0,0
9.973,2273,16,62.0,0
9.993,2274,14,62.0,0
9.993,2275,15,62.0,0
9.993,2276,14,62.0,0
9.993,2277,12,62.0,0
9.993,2278,14,62.0,0
10.012,2279,12,62.0,0
10.013,2280,14,62.0,0
10.013,2281,13,62.0,0
10.013,2282,13,62.0,0
10.013,2283,15,62.0,0
10.032,2284,14,62.0,0
10.032,2285,16,62.0,0
10.032,2286,15,62.0,0
10.032,2287,13,62.0,0
10.032,2288,15,62.0,0
10.055,2289,13,62.0,0
10.056,2290,15,62.0,0
10.056,2291,14,62.0,0
10.056,2292,14,62.0,0
10.056,2293,16,62.0,0
10.082,2294,14,62.0,0
10.082,2295,16,62.0,0
10.082,2296,14,62.0,0
10.082,2297,13,62.0,0
10.082,2298,15,62.0,0
10.092,2299,15,62.0,0
10.092,2300,17,62.0,0
10.092,2301,17,62.0,0
10.092,2302,16,62.0,0
10.092,2303,18,62.0,0
10.115,2304,17,62.0,0
10.115,2305,18,62.0,0
10.115,2306,18,62.0,0
10.115,2307,17,62.0,0
10.115,2308,17,62.0,0
10.142,2309,17,62.0,0
10.142,2310,17,62.0,0
10.142,2311,18,62.0,0
10.142,2312,17,62.0,0
10.142,2313,19,62.0,0
10.162,2314,18,62.0,0
10.162,2315,20,62.0,0
10.162,2316,19,62.0,0
10.162,2317,18,62.0,0
10.162,2318,20,62.0,0
10.183,2319,19,62.0,0
10.183,2320,22,62.0,0
10.183,2321,22,62.0,0
10.183,2322,23,62.0,0
10.183,2323,24,62.0,0
10.202,2324,25,62.0,0
10.202,2325,27,62.0,0
10.202,2326,29,62.0,0
10.202,2327,31,62.0,0
10.202,2328,35,62.0,0
10.224,2329,39,62.0,0
10.224,2330,47,62.0,0
10.225,2331,54,64.3,0
10.225,2332,60,64.3,0
10.225,2333,65,64.3,0
10.243,2334,67,64.3,0
10.243,2335,68,64.3,0
10.243,2336,67,64.3,0
10.243,2337,64,64.3,0
10.243,2338,60,64.3,0
10.262,2339,54,64.3,0
10.262,2340,48,64.3,0
10.262,2341,41,64.3,0
10.263,2342,35,64.3,0
10.263,2343,29,64.3,0
10.283,2344,23,64.3,0
10.283,2345,19,64.3,0
10.283,2346,15,64.3,0
10.283,2347,12,64.3,0
10.283,2348,8,64.3,0
10.283,2349,5,64.3,0
10.302,2350,3,64.3,0
10.302,2351,1,64.3,0
10.302,2352,0,64.3,1
10.302,2353,-2,64.3,0
10.302,2354,-3,64.3,0
10.323,2355,-5,64.3,0
10.323,2356,-8,64.3,0
10.323,2357,-15,64.3,0
10.323,2358,-27,64.3,0
10.323,2359,-43,64.3,0
10.342,2360,-59,64.3,0
10.342,2361,-68,64.3,0
10.342,2362,-59,64.3,0
10.342,2363,-22,64.3,0
10.373,2364,29,64.3,0
10.373,2365,98,64.3,0
10.373,2366,164,64.3,0
10.373,2367,221,64.3,0
10.392,2368,271,64.3,0
10.392,2369,295,64.3,0
10.392,2370,291,64.3,0
10.392,2371,264,64.3,0
10.415,2372,219,64.3,0
10.415,2373,177,64.3,0
10.415,2374,145,64.3,0
10.415,2375,118,64.3,0
10.432,2376,93,64.3,0
10.432,2377,71,64.3,0
10.432,2378,51,64.3,0
10.432,2379,35,64.3,0
10.432,2380,23,64.3,0
10.454,2381,12,64.3,0
10.454,2382,4,64.3,0
10.454,2383,-1,64.3,0
10.454,2384,-6,64.3,0
10.454,2385,-10,64.3,0
10.472,2386,-14,64.3,0
10.472,2387,-15,64.3,0
10.472,2388,-18,64.3,0
10.472,2389,-18,64.3,0
10.495,2390,-20,64.3,0
10.495,2391,-22,64.3,0
10.495,2392,-20,64.3,0
10.495,2393,-21,64.3,0
10.515,2394,-20,64.3,0
10.515,2395,-20,64.3,0
10.515,2396,-20,64.3,0
10.515,2397,-20,64.3,0
10.536,2398,-20,64.3,0
10.536,2399,-18,64.3,0
10.536,2400,-16,64.3,0
10.536,2401,-14,64.3,0
10.552,2402,-11,64.3,0
10.552,2403,-9,64.3,0
10.552,2404,-7,64.3,0
10.552,2405,-5,64.3,0
10.552,2406,-3,64.3,0
10.572,2407,-1,64.3,0
10.572,2408,0,64.3,1
10.572,2409,3,64.3,0
10.572,2410,5,64.3,0
10.572,2411,7,64.3,0
10.572,2412,8,64.3,0
10.602,2413,10,64.3,0
10.602,2414,12,64.3,0
10.602,2415,13,64.3,0
10.602,2416,14,64.3,0
10.602,2417,15,64.3,0
10.628,2418,15,64.3,0
10.628,2419,16,64.3,0
10.628,2420,16,64.3,0
10.628,2421,16,64.3,0
10.628,2422,15,64.3,0
10.645,2423,15,64.3,0
10.645,2424,14,64.3,0
10.645,2425,14,64.3,0
10.645,2426,13,64.3,0
10.645,2427,13,64.3,0
10.662,2428,13,64.3,0
10.662,2429,13,64.3,0
10.662,2430,11,64.3,0
10.662,2431,10,64.3,0
10.662,2432,8,64.3,0
10.662,2433,7,64.3,0
10.685,2434,5,64.3,0
10.685,2435,4,64.3,0
10.685,2436,2,64.3,0
10.685,2437,0,64.3,1
10.685,2438,-1,64.3,0
10.685,2439,-2,64.3,0
10.717,2440,-3,64.3,0
10.717,2441,-4,64.3,0
10.717,2442,-5,64.3,0
10.717,2443,-6,64.3,0
10.717,2444,-7,64.3,0
10.724,2445,-7,64.3,0
10.724,2446,-7,64.3,0
10.724,2447,-7,64.3,0
10.724,2448,-7,64.3,0
10.724,2449,-6,64.3,0
10.742,2450,-5,64.3,0
10.742,2451,-4,64.3,0
10.742,2452,-4,64.3,0
10.742,2453,-3,64.3,0
10.742,2454,-1,64.3,0
10.765,2455,0,64.3,1
10.765,2456,1,64.3,0
10.765,2457,2,64.3,0
10.765,2458,3,64.3,0
10.765,2459,4,64.3,0
10.765,2460,4,64.3,0
10.782,2461,4,64.3,0
10.782,2462,5,64.3,0
10.782,2463,6,64.3,0
10.782,2464,7,64.3,0
10.782,2465,8,64.3,0
10.782,2466,8,64.3,0
10.782,2467,8,64.3,0
10.815,2468,8,64.3,0
10.815,2469,9,64.3,0
10.815,2470,9,64.3,0
10.816,2471,8,64.3,0
10.816,2472,8,64.3,0
10.816,2473,7,64.3,0
10.816,2474,7,64.3,0
10.835,2475,7,64.3,0
10.835,2476,7,64.3,0
10.835,2477,7,64.3,0
10.835,2478,7,64.3,0
10.835,2479,7,64.3,0
10.835,2480,7,64.3,0
10.852,2481,7,64.3,0
10.852,2482,7,64.3,0
10.852,2483,6,64.3,0
10.852,2484,6,64.3,0
10.852,2485,5,64.3,0
10.852,2486,5,64.3,0
10.852,2487,4,64.3,0
10.873,2488,4,64.3,0
10.873,2489,4,64.3,0
10.873,2490,4,64.3,0
10.873,2491,3,64.3,0
10.873,2492,3,64.3,0
10.873,2493,3,64.3,0
10.873,2494,3,64.3,0
10.903,2495,2,64.3,0
10.903,2496,2,64.3,0
10.903,2497,2,64.3,0
10.903,2498,2,64.3,0
10.903,2499,2,64.3,0
10.903,2500,2,64.3,0
10.932,2501,1,64.3,0
10.932,2502,1,64.3,0
10.933,2503,1,64.3,0
10.933,2504,2,64.3,0
10.933,2505,1,64.3,0
10.933,2506,0,64.3,1
10.933,2507,0,64.3,1
10.952,2508,0,64.3,1
10.952,2509,0,64.3,1
10.952,2510,0,64.3,1
10.952,2511,0,64.3,1
10.952,2512,0,64.3,1
10.952,2513,0,64.3,1
10.952,2514,0,64.3,1
10.982,2515,0,64.3,1
10.982,2516,2,64.3,0
10.982,2517,4,64.3,0
10.982,2518,6,64.3,0
10.982,2519,7,64.3,0
10.982,2520,9,64.3,0
11.005,2521,10,64.3,0
11.005,2522,13,64.3,0
11.005,2523,18,64.3,0
11.005,2524,24,64.3,0
11.005,2525,31,64.3,0
11.028,2526,38,64.3,0
11.028,2527,44,64.3,0
11.028,2528,49,66.9,0
11.028,2529,52,66.9,0
11.028,2530,53,66.9,0
11.042,2531,52,66.9,0
11.042,2532,49,66.9,0
11.042,2533,45,66.9,0
11.042,2534,40,66.9,0
11.042,2535,34,66.9,0
11.063,2536,27,66.9,0
11.063,2537,20,66.9,0
11.063,2538,13,66.9,0
11.063,2539,8,66.9,0
11.063,2540,2,66.9,0
11.063,2541,-2,66.9,0
11.097,2542,-6,66.9,0
11.098,2543,-10,66.9,0
11.098,2544,-13,66.9,0
11.098,2545,-16,66.9,0
11.112,2546,-19,66.9,0
11.112,2547,-22,66.9,0
11.112,2548,-24,66.9,0
11.112,2549,-26,66.9,0
11.133,2550,-28,66.9,0
11.133,2551,-30,66.9,0
11.133,2552,-33,66.9,0
11.133,2553,-41,66.9,0
11.152,2554,-53,66.9,0
11.152,2555,-70,66.9,0
11.152,2556,-88,66.9,0
11.152,2557,-97,66.9,0
11.174,2558,-86,66.9,0
11.174,2559,-44,66.9,0
11.174,2560,10,66.9,0
11.174,2561,83,66.9,0
11.193,2562,149,66.9,0
11.193,2563,207,66.9,0
11.193,2564,257,66.9,0
11.193,2565,291,66.9,0
11.213,2566,288,66.9,0
11.213,2567,250,66.9,0
11.213,2568,176,66.9,0
11.213,2569,90,66.9,0
11.213,2570,18,66.9,0
11.232,2571,-27,66.9,0
11.232,2572,-50,66.9,0
11.232,2573,-59,66.9,0
11.232,2574,-63,66.9,0
11.256,2575,-68,66.9,0
11.256,2576,-74,66.9,0
11.256,2577,-78,66.9,0
11.256,2578,-82,66.9,0
11.273,2579,-82,66.9,0
11.273,2580,-82,66.9,0
11.273,2581,-81,66.9,0
11.273,2582,-80,66.9,0
11.293,2583,-79,66.9,0
11.293,2584,-77,66.9,0
11.293,2585,-76,66.9,0
11.293,2586,-73,66.9,0
11.332,2587,-70,66.9,0
11.332,2588,-67,66.9,0
11.332,2589,-63,66.9,0
11.332,2590,-62,66.9,0
11.342,2591,-58,66.9,0
11.342,2592,-56,66.9,0
11.342,2593,-53,66.9,0
11.342,2594,-50,66.9,0
11.363,2595,-48,66.9,0
11.363,2596,-45,66.9,0
11.363,2597,-43,66.9,0
11.363,2598,-40,66.9,0
11.382,2599,-37,66.9,0
11.382,2600,-34,66.9,0
11.382,2601,-30,66.9,0
11.382,2602,-27,66.9,0
11.403,2603,-24,66.9,0
11.403,2604,-21,66.9,0
11.403,2605,-19,66.9,0
11.403,2606,-16,66.9,0
11.422,2607,-14,66.9,0
11.422,2608,-11,66.9,0
11.422,2609,-9,66.9,0
11.422,2610,-6,66.9,0
11.442,2611,-4,66.9,0
11.442,2612,-2,66.9,0
11.442,2613,-1,66.9,0
11.442,2614,0,66.9,1
11.442,2615,1,66.9,0
11.442,2616,1,66.9,0
11.463,2617,3,66.9,0
11.463,2618,3,66.9,0
11.463,2619,2,66.9,0
11.463,2620,3,66.9,0
11.463,2621,1,66.9,0
11.463,2622,2,66.9,0
11.463,2623,0,66.9,1
11.484,2624,-2,66.9,0
11.484,2625,-3,66.9,0
11.484,2626,-5,66.9,0
11.484,2627,-6,66.9,0
11.484,2628,-8,66.9,0
11.502,2629,-11,66.9,0
11.502,2630,-11,66.9,0
11.502,2631,-14,66.9,0
11.502,2632,-14,66.9,0
11.525,2633,-16,66.9,0
11.525,2634,-19,66.9,0
11.525,2635,-19,66.9,0
11.525,2636,-21,66.9,0
11.556,2637,-20,66.9,0
11.556,2638,-21,66.9,0
11.556,2639,-23,66.9,0
11.556,2640,-22,66.9,0
11.572,2641,-23,66.9,0
11.572,2642,-20,66.9,0
11.572,2643,-17,66.9,0
11.572,2644,-16,66.9,0
11.592,2645,-14,66.9,0
11.592,2646,-14,66.9,0
11.592,2647,-13,66.9,0
11.592,2648,-11,66.9,0
11.612,2649,-10,66.9,0
11.612,2650,-7,66.9,0
11.612,2651,-7,66.9,0
11.612,2652,-7,66.9,0
11.650,2653,-5,66.9,0
11.650,2654,-5,66.9,0
11.650,2655,-3,66.9,0
11.650,2656,-4,66.9,0
11.650,2657,-3,66.9,0
11.656,2658,-4,66.9,0
11.656,2659,-4,66.9,0
11.656,2660,-4,66.9,0
11.656,2661,-4,66.9,0
11.656,2662,-5,66.9,0
11.674,2663,-5,66.9,0
11.674,2664,-5,66.9,0
11.674,2665,-5,66.9,0
11.674,2666,-5,66.9,0
11.674,2667,-6,66.9,0
11.697,2668,-7,66.9,0
11.697,2669,-7,66.9,0
11.697,2670,-7,66.9,0
11.697,2671,-6,66.9,0
11.697,2672,-7,66.9,0
11.715,2673,-7,66.9,0
11.715,2674,-8,66.9,0
11.715,2675,-9,66.9,0
11.715,2676,-9,66.9,0
11.715,2677,-10,66.9,0
11.732,2678,-10,66.9,0
11.732,2679,-10,66.9,0
11.732,2680,-10,66.9,0
11.732,2681,-10,66.9,0
11.766,2682,-10,66.9,0
11.766,2683,-10,66.9,0
11.766,2684,-10,66.9,0
11.766,2685,-10,66.9,0
11.784,2686,-9,66.9,0
11.784,2687,-9,66.9,0
11.785,2688,-10,66.9,0
11.785,2689,-7,66.9,0
11.785,2690,-7,66.9,0
11.806,2691,-5,66.9,0
11.806,2692,-6,66.9,0
11.806,2693,-6,66.9,0
11.806,2694,-4,66.9,0
11.806,2695,-4,66.9,0
11.825,2696,-2,66.9,0
11.825,2697,-3,66.9,0
11.825,2698,-4,66.9,0
11.825,2699,-2,66.9,0
11.825,2700,-3,66.9,0
11.842,2701,-1,66.9,0
11.842,2702,-1,66.9,0
11.842,2703,0,66.9,1
11.842,2704,2,66.9,0
11.842,2705,2,66.9,0
11.842,2706,5,66.9,0
11.862,2707,6,66.9,0
11.862,2708,6,66.9,0
11.862,2709,10,66.9,0
11.862,2710,13,66.9,0
11.863,2711,20,66.9,0
11.882,2712,26,66.9,0
11.882,2713,32,66.9,0
11.882,2714,40,66.9,0
11.882,2715,44,66.9,0
11.882,2716,48,67.7,0
11.903,2717,48,67.7,0
11.903,2718,46,67.7,0
11.903,2719,43,67.7,0
11.903,2720,38,67.7,0
11.903,2721,33,67.7,0
11.922,2722,26,67.7,0
11.922,2723,19,67.7,0
11.922,2724,13,67.7,0
11.922,2725,6,67.7,0
11.923,2726,2,67.7,0
11.923,2727,-3,67.7,0
11.943,2728,-9,67.7,0
11.943,2729,-12,67.7,0
11.943,2730,-17,67.7,0
11.943,2731,-20,67.7,0
11.963,2732,-24,67.7,0
11.963,2733,-27,67.7,0
11.963,2734,-28,67.7,0
11.963,2735,-31,67.7,0
11.994,2736,-31,67.7,0
11.994,2737,-33,67.7,0
11.994,2738,-36,67.7,0
11.994,2739,-47,67.7,0
12.012,2740,-61,67.7,0
12.012,2741,-80,67.7,0
12.012,2742,-92,67.7,0
12.012,2743,-86,67.7,0
12.032,2744,-50,67.7,0
12.032,2745,3,67.7,0
12.032,2746,74,67.7,0
12.032,2747,142,67.7,0
12.032,2748,201,67.7,0
12.064,2749,236,67.7,0
12.064,2750,234,67.7,0
12.064,2751,194,67.7,0
12.064,2752,120,67.7,0
12.076,2753,40,67.7,0
12.076,2754,-16,67.7,0
12.076,2755,-51,67.7,0
12.076,2756,-62,67.7,0
12.092,2757,-67,67.7,0
12.092,2758,-72,67.7,0
12.092,2759,-79,67.7,0
12.092,2760,-83,67.7,0
12.113,2761,-86,67.7,0
12.113,2762,-85,67.7,0
12.113,2763,-84,67.7,0
12.113,2764,-82,67.7,0
12.132,2765,-79,67.7,0
12.132,2766,-78,67.7,0
12.132,2767,-75,67.7,0
12.132,2768,-73,67.7,0
12.153,2769,-72,67.7,0
12.153,2770,-68,67.7,0
12.153,2771,-67,67.7,0
12.153,2772,-63,67.7,0
12.173,2773,-61,67.7,0
12.173,2774,-59,67.7,0
12.173,2775,-57,67.7,0
12.173,2776,-55,67.7,0
12.194,2777,-54,67.7,0
12.194,2778,-52,67.7,0
12.194,2779,-51,67.7,0
12.194,2780,-48,67.7,0
12.223,2781,-46,67.7,0
12.223,2782,-44,67.7,0
12.223,2783,-42,67.7,0
12.223,2784,-39,67.7,0
12.242,2785,-37,67.7,0
12.242,2786,-34,67.7,0
12.242,2787,-30,67.7,0
12.242,2788,-26,67.7,0
12.262,2789,-22,67.7,0
12.262,2790,-17,67.7,0
12.262,2791,-15,67.7,0
12.262,2792,-11,67.7,0
12.282,2793,-8,67.7,0
12.282,2794,-6,67.7,0
12.282,2795,-3,67.7,0
12.282,2796,-2,67.7,0
12.282,2797,0,67.7,1
12.302,2798,0,67.7,1
12.302,2799,0,67.7,1
12.302,2800,0,67.7,1
12.303,2801,-1,67.7,0
12.303,2802,-3,67.7,0
12.303,2803,-4,67.7,0
12.325,2804,-6,67.7,0
12.325,2805,-7,67.7,0
12.325,2806,-9,67.7,0
12.325,2807,-11,67.7,0
12.346,2808,-14,67.7,0
12.346,2809,-15,67.7,0
12.346,2810,-17,67.7,0
12.346,2811,-19,67.7,0
12.373,2812,-21,67.7,0
12.373,2813,-23,67.7,0
12.373,2814,-25,67.7,0
12.373,2815,-26,67.7,0
12.382,2816,-27,67.7,0
12.382,2817,-27,67.7,0
12.382,2818,-26,67.7,0
12.382,2819,-27,67.7,0
12.403,2820,-26,67.7,0
12.403,2821,-24,67.7,0
12.403,2822,-25,67.7,0
12.403,2823,-22,67.7,0
12.423,2824,-22,67.7,0
12.423,2825,-22,67.7,0
12.423,2826,-21,67.7,0
12.423,2827,-21,67.7,0
12.456,2828,-20,67.7,0
12.456,2829,-19,67.7,0
12.456,2830,-18,67.7,0
12.456,2831,-16,67.7,0
12.473,2832,-15,67.7,0
12.473,2833,-13,67.7,0
12.473,2834,-12,67.7,0
12.473,2835,-11,67.7,0
12.493,2836,-10,67.7,0
12.493,2837,-9,67.7,0
12.493,2838,-9,67.7,0
12.493,2839,-9,67.7,0
12.493,2840,-9,67.7,0
12.513,2841,-8,67.7,0
12.513,2842,-7,67.7,0
12.513,2843,-6,67.7,0
12.513,2844,-5,67.7,0
12.513,2845,-4,67.7,0
12.533,2846,-5,67.7,0
12.533,2847,-4,67.7,0
12.533,2848,-4,67.7,0
12.533,2849,-3,67.7,0
12.533,2850,-2,67.7,0
12.553,2851,-3,67.7,0
12.553,2852,-2,67.7,0
12.553,2853,-2,67.7,0
12.553,2854,-2,67.7,0
12.553,2855,-1,67.7,0
12.573,2856,-2,67.7,0
12.573,2857,0,67.7,1
12.573,2858,0,67.7,1
12.573,2859,0,67.7,1
12.573,2860,0,67.7,1
12.573,2861,0,67.7,1
12.573,2862,0,67.7,1
12.592,2863,0,67.7,1
12.592,2864,0,67.7,1
12.592,2865,0,67.7,1
12.592,2866,0,67.7,1
12.592,2867,1,67.7,0
12.592,2868,1,67.7,0
12.592,2869,2,67.7,0
12.613,2870,1,67.7,0
12.613,2871,0,67.7,1
12.613,2872,2,67.7,0
12.613,2873,1,67.7,0
12.613,2874,2,67.7,0
12.613,2875,1,67.7,0
12.636,2876,0,67.7,1
12.636,2877,1,67.7,0
12.636,2878,1,67.7,0
12.636,2879,2,67.7,0
12.636,2880,2,67.7,0
12.636,2881,1,67.7,0
12.636,2882,2,67.7,0
12.664,2883,2,67.7,0
12.664,2884,3,67.7,0
12.664,2885,2,67.7,0
12.664,2886,2,67.7,0
12.664,2887,3,67.7,0
12.664,2888,3,67.7,0
12.664,2889,4,67.7,0
12.682,2890,3,67.7,0
12.682,2891,3,67.7,0
12.682,2892,5,67.7,0
12.682,2893,7,67.7,0
12.682,2894,9,67.7,0
12.682,2895,11,67.7,0
12.703,2896,11,67.7,0
12.703,2897,15,67.7,0
12.703,2898,17,67.7,0
12.703,2899,24,67.7,0
12.703,2900,29,67.7,0
12.722,2901,36,67.7,0
12.722,2902,43,67.7,0
12.722,2903,48,68.6,0
12.722,2904,53,68.6,0
12.722,2905,54,68.6,0
12.747,2906,53,68.6,0
12.747,2907,51,68.6,0
12.747,2908,45,68.6,0
12.747,2909,41,68.6,0
12.747,2910,34,68.6,0
12.763,2911,27,68.6,0
12.763,2912,21,68.6,0
12.763,2913,14,68.6,0
12.763,2914,9,68.6,0
12.763,2915,3,68.6,0
12.785,2916,-1,68.6,0
12.785,2917,-4,68.6,0
12.785,2918,-7,68.6,0
12.785,2919,-10,68.6,0
12.785,2920,-13,68.6,0
12.803,2921,-16,68.6,0
12.803,2922,-17,68.6,0
12.803,2923,-19,68.6,0
12.803,2924,-20,68.6,0
12.825,2925,-22,68.6,0
12.825,2926,-24,68.6,0
12.825,2927,-25,68.6,0
12.825,2928,-30,68.6,0
12.852,2929,-38,68.6,0
12.853,2930,-52,68.6,0
12.853,2931,-69,68.6,0
12.853,2932,-83,68.6,0
12.873,2933,-85,68.6,0
12.873,2934,-64,68.6,0
12.873,2935,-16,68.6,0
12.873,2936,43,68.6,0
12.894,2937,116,68.6,0
12.894,2938,179,68.6,0
12.894,2939,235,68.6,0
12.894,2940,276,68.6,0
12.912,2941,286,68.6,0
12.912,2942,263,68.6,0
12.912,2943,205,68.6,0
12.912,2944,129,68.6,0
12.936,2945,54,68.6,0
12.936,2946,-4,68.6,0
12.936,2947,-42,68.6,0
12.936,2948,-64,68.6,0
12.955,2949,-73,68.6,0
12.955,2950,-78,68.6,0
12.955,2951,-82,68.6,0
12.955,2952,-84,68.6,0
12.973,2953,-88,68.6,0
12.973,2954,-90,68.6,0
12.973,2955,-90,68.6,0
12.973,2956,-89,68.6,0
12.995,2957,-85,68.6,0
12.995,2958,-82,68.6,0
12.995,2959,-78,68.6,0
12.995,2960,-76,68.6,0
13.015,2961,-73,68.6,0
13.016,2962,-69,68.6,0
13.016,2963,-67,68.6,0
13.016,2964,-64,68.6,0
13.033,2965,-61,68.6,0
13.033,2966,-59,68.6,0
13.033,2967,-55,68.6,0
13.033,2968,-53,68.6,0
13.055,2969,-49,68.6,0
13.055,2970,-47,68.6,0
13.055,2971,-44,68.6,0
13.055,2972,-41,68.6,0
13.087,2973,-37,68.6,0
13.087,2974,-35,68.6,0
13.087,2975,-32,68.6,0
13.087,2976,-29,68.6,0
13.102,2977,-27,68.6,0
13.103,2978,-25,68.6,0
13.103,2979,-21,68.6,0
13.103,2980,-17,68.6,0
13.125,2981,-14,68.6,0
13.125,2982,-10,68.6,0
13.125,2983,-6,68.6,0
13.125,2984,-2,68.6,0
13.125,2985,0,68.6,1
13.125,2986,3,68.6,0
13.143,2987,5,68.6,0
13.143,2988,6,68.6,0
13.143,2989,7,68.6,0
13.143,2990,7,68.6,0
13.143,2991,8,68.6,0
13.143,2992,8,68.6,0
13.165,2993,8,68.6,0
13.166,2994,7,68.6,0
13.166,2995,6,68.6,0
13.166,2996,4,68.6,0
13.166,2997,2,68.6,0
13.166,2998,0,68.6,1
13.166,2999,-1,68.6,0
13.185,3000,-3,68.6,0
13.185,3001,-5,68.6,0
13.185,3002,-7,68.6,0
13.185,3003,-10,68.6,0
13.203,3004,-12,68.6,0
13.203,3005,-14,68.6,0
13.203,3006,-16,68.6,0
13.203,3007,-18,68.6,0
13.229,3008,-19,68.6,0
13.229,3009,-20,68.6,0
13.229,3010,-20,68.6,0
13.229,3011,-21,68.6,0
13.246,3012,-22,68.6,0
13.246,3013,-23,68.6,0
13.246,3014,-25,68.6,0
13.246,3015,-26,68.6,0
13.262,3016,-27,68.6,0
13.262,3017,-26,68.6,0
13.262,3018,-26,68.6,0
13.262,3019,-25,68.6,0
13.286,3020,-24,68.6,0
13.286,3021,-23,68.6,0
13.286,3022,-22,68.6,0
13.286,3023,-22,68.6,0
13.313,3024,-20,68.6,0
13.313,3025,-19,68.6,0
13.313,3026,-16,68.6,0
13.313,3027,-14,68.6,0
13.335,3028,-11,68.6,0
13.335,3029,-8,68.6,0
13.335,3030,-6,68.6,0
13.335,3031,-4,68.6,0
13.335,3032,-3,68.6,0
13.353,3033,-1,68.6,0
13.353,3034,0,68.6,1
13.353,3035,0,68.6,1
13.353,3036,1,68.6,0
13.353,3037,2,68.6,0
13.353,3038,3,68.6,0
13.353,3039,5,68.6,0
13.373,3040,5,68.6,0
13.373,3041,6,68.6,0
13.373,3042,5,68.6,0
13.373,3043,5,68.6,0
13.373,3044,5,68.6,0
13.373,3045,5,68.6,0
13.392,3046,5,68.6,0
13.392,3047,4,68.6,0
13.392,3048,3,68.6,0
13.392,3049,4,68.6,0
13.393,3050,3,68.6,0
13.393,3051,3,68.6,0
13.393,3052,3,68.6,0
13.413,3053,3,68.6,0
13.413,3054,3,68.6,0
13.413,3055,3,68.6,0
13.413,3056,4,68.6,0
13.413,3057,4,68.6,0
13.413,3058,4,68.6,0
13.413,3059,5,68.6,0
13.432,3060,5,68.6,0
13.432,3061,5,68.6,0
13.432,3062,4,68.6,0
13.432,3063,4,68.6,0
13.432,3064,6,68.6,0
13.432,3065,6,68.6,0
13.454,3066,7,68.6,0
13.454,3067,7,68.6,0
13.454,3068,7,68.6,0
13.454,3069,8,68.6,0
13.454,3070,9,68.6,0
13.454,3071,9,68.6,0
13.454,3072,9,68.6,0
13.485,3073,9,68.6,0
13.485,3074,9,68.6,0
13.485,3075,9,68.6,0
13.485,3076,9,68.6,0
13.485,3077,10,68.6,0
13.485,3078,10,68.6,0
13.503,3079,11,68.6,0
13.504,3080,11,68.6,0
13.504,3081,12,68.6,0
13.504,3082,12,68.6,0
13.504,3083,12,68.6,0
13.524,3084,12,68.6,0
13.524,3085,12,68.6,0
13.524,3086,12,68.6,0
13.524,3087,12,68.6,0
13.524,3088,12,68.6,0
13.546,3089,14,68.6,0
13.546,3090,15,68.6,0
13.546,3091,18,68.6,0
13.546,3092,20,68.6,0
13.546,3093,21,68.6,0
13.564,3094,24,68.6,0
13.564,3095,26,68.6,0
13.564,3096,31,68.6,0
13.564,3097,37,68.6,0
13.564,3098,44,68.6,0
13.595,3099,51,69.3,0
13.595,3100,56,69.3,0
13.595,3101,61,69.3,0
13.595,3102,64,69.3,0
13.596,3103,65,69.3,0
13.623,3104,65,69.3,0
13.623,3105,63,69.3,0
13.623,3106,59,69.3,0
13.623,3107,54,69.3,0
13.623,3108,49,69.3,0
13.633,3109,44,69.3,0
13.633,3110,38,69.3,0
13.633,3111,32,69.3,0
13.633,3112,26,69.3,0
13.633,3113,21,69.3,0
13.652,3114,17,69.3,0
13.652,3115,14,69.3,0
13.652,3116,10,69.3,0
13.652,3117,7,69.3,0
13.652,3118,4,69.3,0
13.652,3119,1,69.3,0
13.672,3120,0,69.3,1
13.672,3121,-2,69.3,0
13.672,3122,-4,69.3,0
13.672,3123,-6,69.3,0
13.672,3124,-7,69.3,0
13.692,3125,-10,69.3,0
13.692,3126,-18,69.3,0
13.692,3127,-30,69.3,0
13.692,3128,-46,69.3,0
13.712,3129,-61,69.3,0
13.712,3130,-68,69.3,0
13.712,3131,-56,69.3,0
13.712,3132,-15,69.3,0
13.732,3133,38,69.3,0
13.732,3134,110,69.3,0
13.732,3135,174,69.3,0
13.732,3136,230,69.3,0
13.752,3137,276,69.3,0
13.752,3138,296,69.3,0
13.752,3139,286,69.3,0
13.752,3140,242,69.3,0
13.778,3141,174,69.3,0
13.778,3142,101,69.3,0
13.778,3143,37,69.3,0
13.778,3144,-10,69.3,0
13.806,3145,-41,69.3,0
13.806,3146,-58,69.3,0
13.806,3147,-65,69.3,0
13.806,3148,-67,69.3,0
13.833,3149,-68,69.3,0
13.833,3150,-70,69.3,0
13.833,3151,-73,69.3,0
13.833,3152,-74,69.3,0
13.844,3153,-74,69.3,0
13.844,3154,-72,69.3,0
13.844,3155,-70,69.3,0
13.844,3156,-68,69.3,0
13.863,3157,-65,69.3,0
13.863,3158,-62,69.3,0
13.863,3159,-58,69.3,0
13.863,3160,-55,69.3,0
13.886,3161,-52,69.3,0
13.886,3162,-49,69.3,0
13.886,3163,-47,69.3,0
13.886,3164,-44,69.3,0
13.906,3165,-40,69.3,0
13.906,3166,-37,69.3,0
13.906,3167,-35,69.3,0
13.906,3168,-32,69.3,0
13.936,3169,-30,69.3,0
13.936,3170,-27,69.3,0
13.936,3171,-23,69.3,0
13.936,3172,-19,69.3,0
13.943,3173,-14,69.3,0
13.943,3174,-10,69.3,0
13.943,3175,-7,69.3,0
13.943,3176,-4,69.3,0
13.943,3177,-1,69.3,0
13.966,3178,1,69.3,0
13.966,3179,3,69.3,0
13.966,3180,6,69.3,0
13.967,3181,9,69.3,0
13.967,3182,11,69.3,0
13.967,3183,14,69.3,0
13.982,3184,17,69.3,0
13.982,3185,20,69.3,0
13.982,3186,22,69.3,0
13.982,3187,23,69.3,0
13.982,3188,24,69.3,0
14.003,3189,24,69.3,0
14.003,3190,25,69.3,0
14.003,3191,26,69.3,0
14.003,3192,25,69.3,0
14.003,3193,26,69.3,0
14.038,3194,26,69.3,0
14.038,3195,25,69.3,0
14.038,3196,24,69.3,0
14.038,3197,23,69.3,0
14.038,3198,22,69.3,0
14.053,3199,21,69.3,0
14.053,3200,20,69.3,0
14.053,3201,19,69.3,0
14.053,3202,17,69.3,0
14.053,3203,16,69.3,0
14.076,3204,14,69.3,0
14.076,3205,13,69.3,0
14.076,3206,11,69.3,0
14.076,3207,8,69.3,0
14.076,3208,7,69.3,0
14.076,3209,6,69.3,0
14.092,3210,6,69.3,0
14.092,3211,5,69.3,0
14.092,3212,3,69.3,0
14.092,3213,2,69.3,0
14.092,3214,1,69.3,0
14.092,3215,1,69.3,0
14.114,3216,1,69.3,0
14.114,3217,0,69.3,1
14.114,3218,0,69.3,1
14.114,3219,0,69.3,1
14.114,3220,0,69.3,1
14.114,3221,0,69.3,1
14.114,3222,0,69.3,1
14.133,3223,0,69.3,1
14.133,3224,1,69.3,0
14.133,3225,2,69.3,0
14.133,3226,3,69.3,0
14.133,3227,4,69.3,0
14.133,3228,5,69.3,0
14.133,3229,6,69.3,0
14.153,3230,8,69.3,0
14.153,3231,9,69.3,0
14.153,3232,10,69.3,0
14.153,3233,11,69.3,0
14.153,3234,12,69.3,0
14.173,3235,13,69.3,0
14.173,3236,14,69.3,0
14.173,3237,15,69.3,0
14.173,3238,15,69.3,0
14.173,3239,15,69.3,0
14.192,3240,16,69.3,0
14.192,3241,16,69.3,0
14.192,3242,16,69.3,0
14.192,3243,16,69.3,0
14.192,3244,15,69.3,0
14.212,3245,15,69.3,0
14.212,3246,15,69.3,0
14.212,3247,14,69.3,0
14.212,3248,13,69.3,0
14.212,3249,12,69.3,0
14.236,3250,12,69.3,0
14.238,3251,12,69.3,0
14.238,3252,10,69.3,0
14.238,3253,10,69.3,0
14.238,3254,9,69.3,0
14.238,3255,9,69.3,0
14.263,3256,8,69.3,0
14.263,3257,8,69.3,0
14.263,3258,7,69.3,0
14.263,3259,7,69.3,0
14.263,3260,7,69.3,0
14.263,3261,7,69.3,0
14.284,3262,6,69.3,0
14.284,3263,6,69.3,0
14.284,3264,6,69.3,0
14.284,3265,6,69.3,0
14.284,3266,6,69.3,0
14.284,3267,5,69.3,0
14.284,3268,6,69.3,0
14.307,3269,5,69.3,0
14.307,3270,6,69.3,0
14.308,3271,5,69.3,0
14.308,3272,5,69.3,0
14.308,3273,6,69.3,0
14.308,3274,6,69.3,0
14.308,3275,7,69.3,0
14.332,3276,6,69.3,0
14.332,3277,6,69.3,0
14.332,3278,6,69.3,0
14.332,3279,6,69.3,0
14.332,3280,7,69.3,0
14.332,3281,7,69.3,0
14.353,3282,6,69.3,0
14.353,3283,7,69.3,0
14.353,3284,6,69.3,0
14.353,3285,7,69.3,0
14.353,3286,6,69.3,0
14.353,3287,5,69.3,0
14.353,3288,5,69.3,0
14.390,3289,5,69.3,0
14.390,3290,5,69.3,0
14.390,3291,6,69.3,0
14.390,3292,5,69.3,0
14.390,3293,6,69.3,0
14.390,3294,6,69.3,0
14.390,3295,6,69.3,0
14.413,3296,6,69.3,0
14.413,3297,6,69.3,0
14.413,3298,6,69.3,0
14.413,3299,6,69.3,0
14.413,3300,6,69.3,0
14.413,3301,5,69.3,0
14.433,3302,5,69.3,0
14.433,3303,6,69.3,0
14.433,3304,8,69.3,0
14.433,3305,10,69.3,0
14.433,3306,10,69.3,0
14.433,3307,10,69.3,0
14.455,3308,11,69.3,0
14.455,3309,13,69.3,0
14.455,3310,17,69.3,0
14.455,3311,22,69.3,0
14.455,3312,28,69.3,0
14.473,3313,35,69.3,0
14.473,3314,41,69.3,0
14.473,3315,46,68.5,0
14.473,3316,49,68.5,0
14.473,3317,50,68.5,0
14.495,3318,49,68.5,0
14.495,3319,46,68.5,0
14.495,3320,42,68.5,0
14.495,3321,37,68.5,0
14.495,3322,30,68.5,0
14.516,3323,24,68.5,0
14.516,3324,18,68.5,0
14.516,3325,12,68.5,0
14.516,3326,5,68.5,0
14.516,3327,0,68.5,1
14.542,3328,-4,68.5,0
14.542,3329,-9,68.5,0
14.542,3330,-12,68.5,0
14.542,3331,-15,68.5,0
14.542,3332,-19,68.5,0
14.564,3333,-21,68.5,0
14.564,3334,-23,68.5,0
14.564,3335,-24,68.5,0
14.564,3336,-26,68.5,0
14.582,3337,-27,68.5,0
14.582,3338,-28,68.5,0
14.582,3339,-31,68.5,0
14.582,3340,-36,68.5,0
14.602,3341,-46,68.5,0
14.602,3342,-61,68.5,0
14.602,3343,-78,68.5,0
14.602,3344,-92,68.5,0
14.626,3345,-92,68.5,0
14.626,3346,-69,68.5,0
14.626,3347,-20,68.5,0
14.626,3348,42,68.5,0
14.642,3349,113,68.5,0
14.642,3350,176,68.5,0
14.642,3351,231,68.5,0
14.642,3352,278,68.5,0
14.665,3353,295,68.5,0
14.665,3354,276,68.5,0
14.665,3355,219,68.5,0
14.665,3356,135,68.5,0
14.682,3357,54,68.5,0
14.682,3358,-1,68.5,0
14.682,3359,-34,68.5,0
14.682,3360,-47,68.5,0
14.705,3361,-54,68.5,0
14.705,3362,-60,68.5,0
14.705,3363,-67,68.5,0
14.705,3364,-75,68.5,0
14.722,3365,-79,68.5,0
14.722,3366,-81,68.5,0
14.722,3367,-81,68.5,0
14.722,3368,-81,68.5,0
14.745,3369,-81,68.5,0
14.745,3370,-81,68.5,0
14.746,3371,-80,68.5,0
14.746,3372,-78,68.5,0
14.776,3373,-76,68.5,0
14.776,3374,-73,68.5,0
14.776,3375,-72,68.5,0
14.776,3376,-70,68.5,0
14.792,3377,-68,68.5,0
14.792,3378,-66,68.5,0
14.792,3379,-64,68.5,0
14.792,3380,-62,68.5,0
14.812,3381,-60,68.5,0
14.812,3382,-58,68.5,0
14.812,3383,-55,68.5,0
14.812,3384,-51,68.5,0
14.832,3385,-48,68.5,0
14.832,3386,-44,68.5,0
14.832,3387,-41,68.5,0
14.832,3388,-39,68.5,0
14.856,3389,-36,68.5,0
14.856,3390,-34,68.5,0
14.856,3391,-30,68.5,0
14.856,3392,-27,68.5,0
14.872,3393,-24,68.5,0
14.872,3394,-22,68.5,0
14.872,3395,-20,68.5,0
14.872,3396,-18,68.5,0
14.892,3397,-16,68.5,0
14.892,3398,-14,68.5,0
14.892,3399,-13,68.5,0
14.892,3400,-12,68.5,0
14.912,3401,-11,68.5,0
14.912,3402,-10,68.5,0
14.912,3403,-10,68.5,0
14.912,3404,-10,68.5,0
14.935,3405,-11,68.5,0
14.935,3406,-11,68.5,0
14.935,3407,-11,68.5,0
14.935,3408,-13,68.5,0
14.956,3409,-14,68.5,0
14.956,3410,-16,68.5,0
14.956,3411,-17,68.5,0
14.956,3412,-20,68.5,0
14.972,3413,-21,68.5,0
14.972,3414,-24,68.5,0
14.972,3415,-27,68.5,0
14.972,3416,-28,68.5,0
15.002,3417,-30,68.5,0
15.002,3418,-31,68.5,0
15.002,3419,-32,68.5,0
15.002,3420,-33,68.5,0
15.023,3421,-33,68.5,0
15.023,3422,-33,68.5,0
15.023,3423,-30,68.5,0
15.023,3424,-30,68.5,0
15.042,3425,-27,68.5,0
15.042,3426,-26,68.5,0
15.042,3427,-25,68.5,0
15.042,3428,-24,68.5,0
15.073,3429,-22,68.5,0
15.073,3430,-21,68.5,0
15.073,3431,-19,68.5,0
15.073,3432,-18,68.5,0
15.082,3433,-17,68.5,0
15.082,3434,-16,68.5,0
15.082,3435,-15,68.5,0
15.082,3436,-14,68.5,0
15.103,3437,-13,68.5,0
15.103,3438,-11,68.5,0
15.103,3439,-10,68.5,0
15.103,3440,-9,68.5,0
15.103,3441,-9,68.5,0
15.124,3442,-9,68.5,0
15.124,3443,-8,68.5,0
15.124,3444,-7,68.5,0
15.124,3445,-7,68.5,0
15.124,3446,-6,68.5,0
15.142,3447,-7,68.5,0
15.142,3448,-7,68.5,0
15.142,3449,-8,68.5,0
15.142,3450,-7,68.5,0
15.142,3451,-7,68.5,0
15.163,3452,-7,68.5,0
15.163,3453,-7,68.5,0
15.163,3454,-7,68.5,0
15.163,3455,-7,68.5,0
15.163,3456,-7,68.5,0
15.186,3457,-7,68.5,0
15.186,3458,-7,68.5,0
15.186,3459,-7,68.5,0
15.186,3460,-7,68.5,0
15.186,3461,-7,68.5,0
15.213,3462,-7,68.5,0
15.213,3463,-7,68.5,0
15.213,3464,-7,68.5,0
15.213,3465,-7,68.5,0
15.213,3466,-6,68.5,0
15.235,3467,-6,68.5,0
15.235,3468,-5,68.5,0
15.235,3469,-5,68.5,0
15.235,3470,-5,68.5,0
15.235,3471,-5,68.5,0
15.252,3472,-5,68.5,0
15.252,3473,-4,68.5,0
15.252,3474,-5,68.5,0
15.252,3475,-5,68.5,0
15.252,3476,-5,68.5,0
15.272,3477,-5,68.5,0
15.272,3478,-5,68.5,0
15.273,3479,-5,68.5,0
15.273,3480,-5,68.5,0
15.273,3481,-5,68.5,0
15.296,3482,-5,68.5,0
15.296,3483,-4,68.5,0
15.296,3484,-4,68.5,0
15.296,3485,-4,68.5,0
15.296,3486,-4,68.5,0
15.316,3487,-4,68.5,0
15.316,3488,-3,68.5,0
15.316,3489,-3,68.5,0
15.316,3490,-3,68.5,0
15.316,3491,-3,68.5,0
15.336,3492,-2,68.5,0
15.336,3493,-2,68.5,0
15.336,3494,-1,68.5,0
15.336,3495,-1,68.5,0
15.336,3496,-1,68.5,0
15.353,3497,-1,68.5,0
15.353,3498,0,68.5,1
15.353,3499,0,68.5,1
15.353,3500,0,68.5,1
15.353,3501,2,68.5,0
15.353,3502,3,68.5,0
15.376,3503,6,68.5,0
15.376,3504,7,68.5,0
15.376,3505,8,68.5,0
15.376,3506,11,68.5,0
15.376,3507,12,68.5,0
15.376,3508,15,68.5,0
15.392,3509,18,68.5,0
15.392,3510,22,68.5,0
15.392,3511,29,68.5,0
15.392,3512,35,68.5,0
15.392,3513,43,68.5,0
15.412,3514,48,67.7,0
15.412,3515,52,67.7,0
15.412,3516,56,67.7,0
15.412,3517,56,67.7,0
15.412,3518,56,67.7,0
15.442,3519,53,67.7,0
15.442,3520,49,67.7,0
15.442,3521,45,67.7,0
15.442,3522,39,67.7,0
15.442,3523,34,67.7,0
15.465,3524,28,67.7,0
15.465,3525,22,67.7,0
15.465,3526,18,67.7,0
15.465,3527,13,67.7,0
15.465,3528,9,67.7,0
15.486,3529,5,67.7,0
15.486,3530,1,67.7,0
15.486,3531,0,67.7,1
15.486,3532,-3,67.7,0
15.486,3533,-4,67.7,0
15.486,3534,-6,67.7,0
15.503,3535,-8,67.7,0
15.503,3536,-9,67.7,0
15.503,3537,-11,67.7,0
15.503,3538,-12,67.7,0
15.522,3539,-15,67.7,0
15.522,3540,-22,67.7,0
15.522,3541,-33,67.7,0
15.522,3542,-51,67.7,0
15.545,3543,-69,67.7,0
15.545,3544,-83,67.7,0
15.545,3545,-81,67.7,0
15.545,3546,-49,67.7,0
15.566,3547,1,67.7,0
15.566,3548,69,67.7,0
15.566,3549,138,67.7,0
15.566,3550,198,67.7,0
15.567,3551,251,67.7,0
15.583,3552,294,67.7,0
15.583,3553,259,67.7,0
15.583,3554,225,67.7,0
15.583,3555,133,67.7,0
15.606,3556,65,67.7,0
15.606,3557,23,67.7,0
15.606,3558,1,67.7,0
15.606,3559,-10,67.7,0
15.623,3560,-21,67.7,0
15.623,3561,-30,67.7,0
15.623,3562,-40,67.7,0
15.623,3563,-46,67.7,0
15.643,3564,-51,67.7,0
15.643,3565,-53,67.7,0
15.643,3566,-56,67.7,0
15.643,3567,-57,67.7,0
15.676,3568,-58,67.7,0
15.676,3569,-60,67.7,0
15.676,3570,-60,67.7,0
15.676,3571,-60,67.7,0
15.693,3572,-60,67.7,0
15.693,3573,-60,67.7,0
15.693,3574,-59,67.7,0
15.693,3575,-57,67.7,0
15.713,3576,-55,67.7,0
15.713,3577,-52,67.7,0
15.713,3578,-51,67.7,0
15.713,3579,-48,67.7,0
15.732,3580,-45,67.7,0
15.732,3581,-43,67.7,0
15.732,3582,-39,67.7,0
15.732,3583,-37,67.7,0
15.752,3584,-33,67.7,0
15.752,3585,-31,67.7,0
15.752,3586,-29,67.7,0
15.752,3587,-27,67.7,0
15.772,3588,-23,67.7,0
15.772,3589,-20,67.7,0
15.772,3590,-17,67.7,0
15.772,3591,-14,67.7,0
15.795,3592,-12,67.7,0
15.795,3593,-9,67.7,0
15.795,3594,-7,67.7,0
15.795,3595,-4,67.7,0
15.795,3596,-2,67.7,0
15.795,3597,0,67.7,1
15.824,3598,1,67.7,0
15.824,3599,2,67.7,0
15.824,3600,4,67.7,0
15.824,3601,6,67.7,0
15.824,3602,7,67.7,0
15.824,3603,7,67.7,0
15.832,3604,7,67.7,0
15.832,3605,8,67.7,0
15.832,3606,7,67.7,0
15.832,3607,7,67.7,0
15.832,3608,6,67.7,0
15.832,3609,4,67.7,0
15.832,3610,3,67.7,0
15.852,3611,1,67.7,0
15.852,3612,0,67.7,1
15.852,3613,-2,67.7,0
15.852,3614,-4,67.7,0
15.852,3615,-4,67.7,0
15.872,3616,-7,67.7,0
15.872,3617,-8,67.7,0
15.872,3618,-12,67.7,0
15.872,3619,-15,67.7,0
15.872,3620,-16,67.7,0
15.912,3621,-18,67.7,0
15.912,3622,-18,67.7,0
15.912,3623,-19,67.7,0
15.912,3624,-21,67.7,0
15.922,3625,-20,67.7,0
15.923,3626,-21,67.7,0
15.923,3627,-21,67.7,0
15.923,3628,-22,67.7,0
15.942,3629,-22,67.7,0
15.943,3630,-21,67.7,0
15.943,3631,-21,67.7,0
15.943,3632,-19,67.7,0
15.968,3633,-18,67.7,0
15.968,3634,-17,67.7,0
15.968,3635,-15,67.7,0
15.968,3636,-14,67.7,0
15.987,3637,-13,67.7,0
15.987,3638,-13,67.7,0
15.987,3639,-12,67.7,0
15.987,3640,-10,67.7,0
16.004,3641,-9,67.7,0
16.004,3642,-6,67.7,0
16.004,3643,-5,67.7,0
16.004,3644,-3,67.7,0
16.004,3645,-4,67.7,0
16.026,3646,-4,67.7,0
16.026,3647,-4,67.7,0
16.026,3648,-4,67.7,0
16.026,3649,-4,67.7,0
16.026,3650,-4,67.7,0
16.045,3651,-4,67.7,0
16.045,3652,-5,67.7,0
16.045,3653,-5,67.7,0
16.045,3654,-5,67.7,0
16.045,3655,-5,67.7,0
16.062,3656,-5,67.7,0
16.062,3657,-5,67.7,0
16.062,3658,-6,67.7,0
16.062,3659,-6,67.7,0
16.062,3660,-6,67.7,0
16.083,3661,-6,67.7,0
16.083,3662,-6,67.7,0
16.083,3663,-7,67.7,0
16.083,3664,-7,67.7,0
16.083,3665,-7,67.7,0
16.113,3666,-7,67.7,0
16.113,3667,-7,67.7,0
16.113,3668,-7,67.7,0
16.113,3669,-7,67.7,0
16.113,3670,-7,67.7,0
16.134,3671,-7,67.7,0
16.134,3672,-8,67.7,0
16.134,3673,-8,67.7,0
16.134,3674,-9,67.7,0
16.134,3675,-9,67.7,0
16.156,3676,-8,67.7,0
16.156,3677,-8,67.7,0
16.156,3678,-8,67.7,0
16.156,3679,-8,67.7,0
16.156,3680,-9,67.7,0
16.172,3681,-7,67.7,0
16.172,3682,-7,67.7,0
16.172,3683,-5,67.7,0
16.172,3684,-5,67.7,0
16.172,3685,-5,67.7,0
16.196,3686,-4,67.7,0
16.196,3687,-4,67.7,0
16.196,3688,-3,67.7,0
16.196,3689,-4,67.7,0
16.196,3690,-5,67.7,0
16.212,3691,-4,67.7,0
16.212,3692,-4,67.7,0
16.212,3693,-3,67.7,0
16.212,3694,-3,67.7,0
16.212,3695,-3,67.7,0
16.233,3696,-1,67.7,0
16.233,3697,-1,67.7,0
16.233,3698,0,67.7,1
16.233,3699,0,67.7,1
16.233,3700,-1,67.7,0
16.252,3701,0,67.7,1
16.252,3702,-1,67.7,0
16.252,3703,0,67.7,1
16.252,3704,0,67.7,1
16.252,3705,0,67.7,1
16.252,3706,0,67.7,1
16.252,3707,0,67.7,1
16.272,3708,0,67.7,1
16.273,3709,0,67.7,1
16.273,3710,-1,67.7,0
16.273,3711,0,67.7,1
16.273,3712,0,67.7,1
16.273,3713,1,67.7,0
16.296,3714,1,67.7,0
16.296,3715,0,67.7,1
16.296,3716,1,67.7,0
16.296,3717,1,67.7,0
16.296,3718,3,67.7,0
16.296,3719,4,67.7,0
16.296,3720,5,67.7,0
16.313,3721,7,67.7,0
16.313,3722,8,67.7,0
16.313,3723,11,67.7,0
16.313,3724,14,67.7,0
16.313,3725,19,67.7,0
16.342,3726,26,67.7,0
16.342,3727,33,67.7,0
16.342,3728,40,67.7,0
16.342,3729,44,67.7,0
16.342,3730,47,66.6,0
16.366,3731,50,66.6,0
16.366,3732,49,66.6,0
16.366,3733,47,66.6,0
16.366,3734,43,66.6,0
16.366,3735,37,66.6,0
16.385,3736,34,66.6,0
16.385,3737,29,66.6,0
16.385,3738,24,66.6,0
16.385,3739,18,66.6,0
16.385,3740,11,66.6,0
16.402,3741,7,66.6,0
16.402,3742,2,66.6,0
16.402,3743,0,66.6,1
16.402,3744,-2,66.6,0
16.402,3745,-6,66.6,0
16.402,3746,-9,66.6,0
16.432,3747,-12,66.6,0
16.432,3748,-13,66.6,0
16.432,3749,-15,66.6,0
16.432,3750,-17,66.6,0
16.446,3751,-18,66.6,0
16.446,3752,-20,66.6,0
16.446,3753,-23,66.6,0
16.446,3754,-29,66.6,0
16.462,3755,-41,66.6,0
16.462,3756,-55,66.6,0
16.462,3757,-72,66.6,0
16.462,3758,-81,66.6,0
16.482,3759,-73,66.6,0
16.482,3760,-39,66.6,0
16.482,3761,13,66.6,0
16.483,3762,81,66.6,0
16.502,3763,149,66.6,0
16.502,3764,208,66.6,0
16.502,3765,259,66.6,0
16.502,3766,286,66.6,0
16.523,3767,281,66.6,0
16.523,3768,238,66.6,0
16.523,3769,173,66.6,0
16.523,3770,97,66.6,0
16.523,3771,39,66.6,0
16.543,3772,0,66.6,1
16.543,3773,-24,66.6,0
16.543,3774,-37,66.6,0
16.543,3775,-46,66.6,0
16.572,3776,-52,66.6,0
16.572,3777,-58,66.6,0
16.572,3778,-61,66.6,0
16.572,3779,-64,66.6,0
16.595,3780,-65,66.6,0
16.595,3781,-67,66.6,0
16.595,3782,-68,66.6,0
16.595,3783,-69,66.6,0
16.612,3784,-68,66.6,0
16.613,3785,-67,66.6,0
16.613,3786,-66,66.6,0
16.613,3787,-65,66.6,0
16.645,3788,-65,66.6,0
16.645,3789,-64,66.6,0
16.645,3790,-63,66.6,0
16.646,3791,-60,66.6,0
16.652,3792,-57,66.6,0
16.652,3793,-53,66.6,0
16.652,3794,-49,66.6,0
16.652,3795,-46,66.6,0
16.672,3796,-43,66.6,0
16.672,3797,-40,66.6,0
16.672,3798,-37,66.6,0
16.672,3799,-34,66.6,0
16.692,3800,-32,66.6,0
16.692,3801,-28,66.6,0
16.692,3802,-25,66.6,0
16.692,3803,-21,66.6,0
16.716,3804,-18,66.6,0
16.716,3805,-15,66.6,0
16.716,3806,-13,66.6,0
16.716,3807,-11,66.6,0
16.742,3808,-8,66.6,0
16.742,3809,-5,66.6,0
16.742,3810,-3,66.6,0
16.742,3811,0,66.6,1
16.742,3812,1,66.6,0
16.742,3813,3,66.6,0
16.753,3814,4,66.6,0
16.753,3815,6,66.6,0
16.753,3816,7,66.6,0
16.753,3817,9,66.6,0
16.753,3818,9,66.6,0
16.753,3819,10,66.6,0
16.786,3820,10,66.6,0
16.786,3821,9,66.6,0
16.786,3822,8,66.6,0
16.786,3823,7,66.6,0
16.786,3824,7,66.6,0
16.786,3825,6,66.6,0
16.786,3826,4,66.6,0
16.802,3827,2,66.6,0
16.802,3828,0,66.6,1
16.802,3829,-2,66.6,0
16.802,3830,-4,66.6,0
16.802,3831,-6,66.6,0
16.823,3832,-8,66.6,0
16.823,3833,-10,66.6,0
16.823,3834,-11,66.6,0
16.823,3835,-12,66.6,0
16.843,3836,-13,66.6,0
16.843,3837,-14,66.6,0
16.843,3838,-15,66.6,0
16.843,3839,-16,66.6,0
16.866,3840,-16,66.6,0
16.866,3841,-16,66.6,0
16.866,3842,-16,66.6,0
16.866,3843,-16,66.6,0
16.883,3844,-15,66.6,0
16.883,3845,-14,66.6,0
16.883,3846,-13,66.6,0
16.883,3847,-12,66.6,0
16.903,3848,-12,66.6,0
16.903,3849,-11,66.6,0
16.903,3850,-8,66.6,0
16.903,3851,-7,66.6,0
16.903,3852,-4,66.6,0
16.922,3853,-2,66.6,0
16.922,3854,0,66.6,1
16.922,3855,0,66.6,1
16.922,3856,3,66.6,0
16.922,3857,4,66.6,0
16.922,3858,6,66.6,0
16.942,3859,6,66.6,0
16.942,3860,6,66.6,0
16.942,3861,7,66.6,0
16.942,3862,7,66.6,0
16.942,3863,8,66.6,0
16.942,3864,7,66.6,0
16.942,3865,7,66.6,0
16.964,3866,8,66.6,0
16.964,3867,7,66.6,0
16.964,3868,8,66.6,0
16.964,3869,7,66.6,0
16.964,3870,6,66.6,0
16.964,3871,7,66.6,0
16.964,3872,6,66.6,0
16.986,3873,7,66.6,0
16.986,3874,6,66.6,0
16.986,3875,5,66.6,0
16.986,3876,6,66.6,0
16.986,3877,5,66.6,0
16.986,3878,6,66.6,0
17.013,3879,6,66.6,0
17.013,3880,6,66.6,0
17.013,3881,6,66.6,0
17.013,3882,4,66.6,0
17.013,3883,4,66.6,0
17.013,3884,4,66.6,0
17.013,3885,3,66.6,0
17.033,3886,4,66.6,0
17.033,3887,4,66.6,0
17.033,3888,5,66.6,0
17.033,3889,5,66.6,0
17.033,3890,4,66.6,0
17.033,3891,5,66.6,0
17.033,3892,4,66.6,0
17.056,3893,6,66.6,0
17.056,3894,5,66.6,0
17.056,3895,5,66.6,0
17.056,3896,6,66.6,0
17.056,3897,5,66.6,0
17.056,3898,6,66.6,0
17.085,3899,5,66.6,0
17.085,3900,5,66.6,0
17.085,3901,6,66.6,0
17.085,3902,6,66.6,0
17.085,3903,7,66.6,0
17.085,3904,7,66.6,0
17.085,3905,6,66.6,0
17.103,3906,7,66.6,0
17.103,3907,7,66.6,0
17.103,3908,8,66.6,0
17.103,3909,8,66.6,0
17.103,3910,8,66.6,0
17.103,3911,9,66.6,0
17.103,3912,8,66.6,0
17.135,3913,9,66.6,0
17.135,3914,8,66.6,0
17.135,3915,7,66.6,0
17.135,3916,8,66.6,0
17.135,3917,8,66.6,0
17.135,3918,9,66.6,0
17.163,3919,9,66.6,0
17.163,3920,9,66.6,0
17.163,3921,10,66.6,0
17.163,3922,9,66.6,0
17.163,3923,9,66.6,0
17.163,3924,8,66.6,0
17.163,3925,7,66.6,0
17.186,3926,8,66.6,0
17.186,3927,9,66.6,0
17.186,3928,11,66.6,0
17.186,3929,12,66.6,0
17.186,3930,13,66.6,0
17.203,3931,15,66.6,0
17.203,3932,15,66.6,0
17.203,3933,18,66.6,0
17.203,3934,21,66.6,0
17.203,3935,25,66.6,0
17.223,3936,33,66.6,0
17.223,3937,39,66.6,0
17.223,3938,47,66.6,0
17.223,3939,52,66.9,0
17.223,3940,56,66.9,0
17.246,3941,59,66.9,0
17.246,3942,60,66.9,0
17.246,3943,60,66.9,0
17.246,3944,57,66.9,0
17.246,3945,52,66.9,0
17.273,3946,48,66.9,0
17.273,3947,42,66.9,0
17.273,3948,37,66.9,0
17.273,3949,30,66.9,0
17.273,3950,23,66.9,0
17.292,3951,18,66.9,0
17.292,3952,13,66.9,0
17.292,3953,9,66.9,0
17.292,3954,5,66.9,0
17.292,3955,1,66.9,0
17.292,3956,0,66.9,1
17.314,3957,-2,66.9,0
17.314,3958,-3,66.9,0
17.314,3959,-6,66.9,0
17.314,3960,-8,66.9,0
17.314,3961,-9,66.9,0
17.333,3962,-11,66.9,0
17.333,3963,-12,66.9,0
17.333,3964,-17,66.9,0
17.333,3965,-26,66.9,0
17.354,3966,-39,66.9,0
17.354,3967,-56,66.9,0
17.354,3968,-71,66.9,0
17.354,3969,-77,66.9,0
17.373,3970,-62,66.9,0
17.373,3971,-17,66.9,0
17.373,3972,39,66.9,0
17.373,3973,112,66.9,0
17.392,3974,175,66.9,0
17.392,3975,230,66.9,0
17.392,3976,278,66.9,0
17.392,3977,295,66.9,0
17.413,3978,283,66.9,0
17.413,3979,234,66.9,0
17.413,3980,161,66.9,0
17.413,3981,86,66.9,0
17.413,3982,22,66.9,0
17.433,3983,-21,66.9,0
17.433,3984,-50,66.9,0
17.433,3985,-64,66.9,0
17.433,3986,-68,66.9,0
17.452,3987,-71,66.9,0
17.452,3988,-72,66.9,0
17.452,3989,-76,66.9,0
17.452,3990,-79,66.9,0
17.483,3991,-78,66.9,0
17.483,3992,-78,66.9,0
17.483,3993,-75,66.9,0
17.483,3994,-73,66.9,0
17.503,3995,-71,66.9,0
17.503,3996,-68,66.9,0
17.503,3997,-65,66.9,0
17.503,3998,-63,66.9,0
17.523,3999,-60,66.9,0
17.523,4000,-58,66.9,0
17.523,4001,-56,66.9,0
17.523,4002,-52,66.9,0
17.543,4003,-49,66.9,0
17.543,4004,-46,66.9,0
17.543,4005,-44,66.9,0
17.543,4006,-41,66.9,0
17.566,4007,-38,66.9,0
17.566,4008,-35,66.9,0
17.566,4009,-32,66.9,0
17.566,4010,-30,66.9,0
17.586,4011,-27,66.9,0
17.586,4012,-24,66.9,0
17.586,4013,-22,66.9,0
17.586,4014,-18,66.9,0
17.602,4015,-16,66.9,0
17.602,4016,-11,66.9,0
17.602,4017,-8,66.9,0
17.602,4018,-4,66.9,0
17.625,4019,-1,66.9,0
17.625,4020,1,66.9,0
17.625,4021,3,66.9,0
17.625,4022,6,66.9,0
17.625,4023,8,66.9,0
17.625,4024,10,66.9,0
17.643,4025,11,66.9,0
17.643,4026,12,66.9,0
17.643,4027,14,66.9,0
17.643,4028,15,66.9,0
17.643,4029,16,66.9,0
17.662,4030,17,66.9,0
17.663,4031,18,66.9,0
17.663,4032,18,66.9,0
17.663,4033,18,66.9,0
17.663,4034,18,66.9,0
17.685,4035,18,66.9,0
17.685,4036,17,66.9,0
17.685,4037,16,66.9,0
17.685,4038,15,66.9,0
17.685,4039,14,66.9,0
17.713,4040,12,66.9,0
17.713,4041,10,66.9,0
17.713,4042,8,66.9,0
17.713,4043,7,66.9,0
17.713,4044,5,66.9,0
17.713,4045,4,66.9,0
17.734,4046,2,66.9,0
17.734,4047,0,66.9,1
17.734,4048,0,66.9,1
17.734,4049,-2,66.9,0
17.734,4050,-3,66.9,0
17.734,4051,-4,66.9,0
17.753,4052,-5,66.9,0
17.753,4053,-6,66.9,0
17.753,4054,-7,66.9,0
17.753,4055,-7,66.9,0
17.753,4056,-7,66.9,0
17.776,4057,-7,66.9,0
17.776,4058,-7,66.9,0
17.776,4059,-7,66.9,0
17.776,4060,-8,66.9,0
17.776,4061,-8,66.9,0
17.795,4062,-7,66.9,0
17.795,4063,-6,66.9,0
17.795,4064,-5,66.9,0
17.795,4065,-5,66.9,0
17.795,4066,-3,66.9,0
17.815,4067,-2,66.9,0
17.815,4068,0,66.9,1
17.815,4069,0,66.9,1
17.815,4070,1,66.9,0
17.815,4071,2,66.9,0
17.815,4072,3,66.9,0
17.832,4073,3,66.9,0
17.832,4074,4,66.9,0
17.832,4075,4,66.9,0
17.832,4076,5,66.9,0
17.833,4077,5,66.9,0
17.833,4078,5,66.9,0
17.833,4079,5,66.9,0
17.855,4080,4,66.9,0
17.855,4081,3,66.9,0
17.855,4082,3,66.9,0
17.855,4083,2,66.9,0
17.855,4084,1,66.9,0
17.855,4085,1,66.9,0
17.855,4086,0,66.9,1
17.873,4087,0,66.9,1
17.873,4088,0,66.9,1
17.873,4089,0,66.9,1
17.873,4090,0,66.9,1
17.873,4091,-1,66.9,0
17.873,4092,-1,66.9,0
17.906,4093,-1,66.9,0
17.906,4094,-2,66.9,0
17.906,4095,-2,66.9,0
17.906,4096,-2,66.9,0
17.906,4097,-2,66.9,0
17.925,4098,-3,66.9,0
17.925,4099,-3,66.9,0
17.925,4100,-4,66.9,0
17.925,4101,-4,66.9,0
17.925,4102,-4,66.9,0
17.944,4103,-3,66.9,0
17.944,4104,-3,66.9,0
17.944,4105,-3,66.9,0
17.944,4106,-3,66.9,0
17.944,4107,-3,66.9,0
17.965,4108,-3,66.9,0
17.965,4109,-3,66.9,0
17.965,4110,-3,66.9,0
17.966,4111,-3,66.9,0
17.966,4112,-3,66.9,0
17.987,4113,-3,66.9,0
17.987,4114,-3,66.9,0
17.987,4115,-3,66.9,0
17.987,4116,-3,66.9,0
17.987,4117,-3,66.9,0
18.003,4118,-3,66.9,0
18.003,4119,-3,66.9,0
18.003,4120,-3,66.9,0
18.003,4121,-3,66.9,0
18.003,4122,-3,66.9,0
18.027,4123,-2,66.9,0
18.027,4124,-2,66.9,0
18.027,4125,-3,66.9,0
18.027,4126,-3,66.9,0
18.027,4127,-3,66.9,0
18.047,4128,-3,66.9,0
18.047,4129,-3,66.9,0
18.047,4130,-4,66.9,0
18.048,4131,-4,66.9,0
18.048,4132,-4,66.9,0
18.062,4133,-4,66.9,0
18.062,4134,-5,66.9,0
18.062,4135,-5,66.9,0
18.062,4136,-4,66.9,0
18.062,4137,-4,66.9,0
18.083,4138,-4,66.9,0
18.083,4139,-4,66.9,0
18.083,4140,-4,66.9,0
18.083,4141,-4,66.9,0
18.083,4142,-3,66.9,0
18.113,4143,-4,66.9,0
18.113,4144,-4,66.9,0
18.113,4145,-4,66.9,0
18.113,4146,-4,66.9,0
18.113,4147,-3,66.9,0
18.134,4148,-3,66.9,0
18.135,4149,-1,66.9,0
18.135,4150,0,66.9,1
18.135,4151,1,66.9,0
18.135,4152,2,66.9,0
18.135,4153,4,66.9,0
18.156,4154,7,66.9,0
18.157,4155,11,66.9,0
18.157,4156,18,66.9,0
18.157,4157,26,66.9,0
18.157,4158,33,66.9,0
18.175,4159,39,66.9,0
18.175,4160,43,66.9,0
18.175,4161,46,66.0,0
18.175,4162,48,66.0,0
18.175,4163,47,66.0,0
18.192,4164,44,66.0,0
18.192,4165,40,66.0,0
18.192,4166,35,66.0,0
18.192,4167,30,66.0,0
18.192,4168,24,66.0,0
18.212,4169,18,66.0,0
18.212,4170,13,66.0,0
18.212,4171,8,66.0,0
18.212,4172,4,66.0,0
18.212,4173,0,66.0,1
18.212,4174,-3,66.0,0
18.233,4175,-7,66.0,0
18.233,4176,-10,66.0,0
18.233,4177,-12,66.0,0
18.233,4178,-14,66.0,0
18.252,4179,-16,66.0,0
18.252,4180,-18,66.0,0
18.253,4181,-19,66.0,0
18.253,4182,-20,66.0,0
18.273,4183,-22,66.0,0
18.273,4184,-25,66.0,0
18.273,4185,-32,66.0,0
18.273,4186,-44,66.0,0
18.294,4187,-60,66.0,0
18.294,4188,-78,66.0,0
18.294,4189,-90,66.0,0
18.294,4190,-85,66.0,0
18.316,4191,-51,66.0,0
18.316,4192,1,66.0,0
18.316,4193,71,66.0,0
18.316,4194,139,66.0,0
18.333,4195,199,66.0,0
18.333,4196,241,66.0,0
18.333,4197,246,66.0,0
18.333,4198,213,66.0,0
18.365,4199,144,66.0,0
18.365,4200,62,66.0,0
18.365,4201,-4,66.0,0
18.365,4202,-46,66.0,0
18.365,4203,-65,66.0,0
18.383,4204,-71,66.0,0
18.383,4205,-74,66.0,0
18.383,4206,-79,66.0,0
18.383,4207,-84,66.0,0
18.403,4208,-88,66.0,0
18.403,4209,-88,66.0,0
18.403,4210,-87,66.0,0
18.403,4211,-84,66.0,0
18.422,4212,-80,66.0,0
18.422,4213,-77,66.0,0
18.422,4214,-75,66.0,0
18.422,4215,-72,66.0,0
18.443,4216,-70,66.0,0
18.443,4217,-68,66.0,0
18.443,4218,-66,66.0,0
18.443,4219,-63,66.0,0
18.464,4220,-61,66.0,0
18.464,4221,-59,66.0,0
18.464,4222,-55,66.0,0
18.464,4223,-53,66.0,0
18.483,4224,-50,66.0,0
18.483,4225,-47,66.0,0
18.483,4226,-44,66.0,0
18.483,4227,-41,66.0,0
18.502,4228,-39,66.0,0
18.502,4229,-36,66.0,0
18.502,4230,-33,66.0,0
18.502,4231,-31,66.0,0
18.526,4232,-27,66.0,0
18.526,4233,-25,66.0,0
18.526,4234,-22,66.0,0
18.526,4235,-19,66.0,0
18.546,4236,-17,66.0,0
18.546,4237,-14,66.0,0
18.546,4238,-11,66.0,0
18.546,4239,-9,66.0,0
18.566,4240,-7,66.0,0
18.566,4241,-5,66.0,0
18.566,4242,-3,66.0,0
18.566,4243,-1,66.0,0
18.566,4244,0,66.0,1
18.566,4245,0,66.0,1
18.592,4246,1,66.0,0
18.592,4247,1,66.0,0
18.592,4248,1,66.0,0
18.592,4249,1,66.0,0
18.592,4250,0,66.0,1
18.592,4251,0,66.0,1
18.613,4252,0,66.0,1
18.613,4253,-1,66.0,0
18.613,4254,-2,66.0,0
18.613,4255,-3,66.0,0
18.613,4256,-5,66.0,0
18.633,4257,-6,66.0,0
18.633,4258,-7,66.0,0
18.633,4259,-9,66.0,0
18.633,4260,-11,66.0,0
18.633,4261,-12,66.0,0
18.653,4262,-13,66.0,0
18.653,4263,-14,66.0,0
18.653,4264,-16,66.0,0
18.653,4265,-17,66.0,0
18.673,4266,-18,66.0,0
18.673,4267,-19,66.0,0
18.673,4268,-19,66.0,0
18.673,4269,-20,66.0,0
18.693,4270,-21,66.0,0
18.694,4271,-21,66.0,0
18.694,4272,-21,66.0,0
18.694,4273,-21,66.0,0
18.713,4274,-20,66.0,0
18.713,4275,-19,66.0,0
18.713,4276,-18,66.0,0
18.713,4277,-17,66.0,0
18.732,4278,-16,66.0,0
18.732,4279,-15,66.0,0
18.732,4280,-14,66.0,0
18.732,4281,-11,66.0,0
18.752,4282,-9,66.0,0
18.752,4283,-7,66.0,0
18.752,4284,-7,66.0,0
18.752,4285,-6,66.0,0
18.752,4286,-4,66.0,0
18.776,4287,-3,66.0,0
18.776,4288,-1,66.0,0
18.776,4289,-1,66.0,0
18.776,4290,-1,66.0,0
18.780,4291,0,66.0,1
18.794,4292,0,66.0,1
18.794,4293,0,66.0,1
18.794,4294,0,66.0,1
18.794,4295,-1,66.0,0
18.794,4296,0,66.0,1
18.794,4297,0,66.0,1
18.794,4298,0,66.0,1
18.833,4299,-1,66.0,0
18.833,4300,-1,66.0,0
18.833,4301,-1,66.0,0
18.833,4302,-1,66.0,0
18.833,4303,-1,66.0,0
18.846,4304,-2,66.0,0
18.846,4305,-2,66.0,0
18.846,4306,-1,66.0,0
18.846,4307,-1,66.0,0
18.846,4308,-1,66.0,0
18.866,4309,-2,66.0,0
18.866,4310,-2,66.0,0
18.866,4311,-1,66.0,0
18.866,4312,-1,66.0,0
18.866,4313,0,66.0,1
18.886,4314,0,66.0,1
18.886,4315,0,66.0,1
18.886,4316,1,66.0,0
18.886,4317,1,66.0,0
18.886,4318,1,66.0,0
18.886,4319,0,66.0,1
18.886,4320,0,66.0,1
18.903,4321,0,66.0,1
18.903,4322,0,66.0,1
18.903,4323,0,66.0,1
18.903,4324,0,66.0,1
18.903,4325,0,66.0,1
18.903,4326,0,66.0,1
18.926,4327,0,66.0,1
18.926,4328,0,66.0,1
18.926,4329,0,66.0,1
18.926,4330,0,66.0,1
18.926,4331,1,66.0,0
18.926,4332,2,66.0,0
18.926,4333,3,66.0,0
18.943,4334,3,66.0,0
18.943,4335,3,66.0,0
18.943,4336,3,66.0,0
18.943,4337,3,66.0,0
18.943,4338,3,66.0,0
18.943,4339,3,66.0,0
18.943,4340,2,66.0,0
18.964,4341,3,66.0,0
18.964,4342,2,66.0,0
18.964,4343,1,66.0,0
18.964,4344,0,66.0,1
18.964,4345,0,66.0,1
18.964,4346,1,66.0,0
18.992,4347,0,66.0,1
18.992,4348,0,66.0,1
18.992,4349,0,66.0,1
18.992,4350,0,66.0,1
18.992,4351,0,66.0,1
18.992,4352,0,66.0,1
18.992,4353,1,66.0,0
19.023,4354,1,66.0,0
19.023,4355,1,66.0,0
19.023,4356,3,66.0,0
19.023,4357,4,66.0,0
19.023,4358,6,66.0,0
19.023,4359,8,66.0,0
19.023,4360,9,66.0,0
19.044,4361,11,66.0,0
19.044,4362,12,66.0,0
19.044,4363,14,66.0,0
19.044,4364,17,66.0,0
19.044,4365,22,66.0,0
19.062,4366,29,66.0,0
19.062,4367,36,66.0,0
19.062,4368,42,66.0,0
19.062,4369,47,66.4,0
19.062,4370,51,66.4,0
19.084,4371,53,66.4,0
19.084,4372,53,66.4,0
19.084,4373,52,66.4,0
19.084,4374,49,66.4,0
19.084,4375,45,66.4,0
19.103,4376,40,66.4,0
19.103,4377,33,66.4,0
19.103,4378,27,66.4,0
19.103,4379,21,66.4,0
19.103,4380,15,66.4,0
19.123,4381,11,66.4,0
19.123,4382,6,66.4,0
19.123,4383,2,66.4,0
19.123,4384,-1,66.4,0
19.123,4385,-4,66.4,0
19.146,4386,-6,66.4,0
19.146,4387,-9,66.4,0
19.146,4388,-11,66.4,0
19.146,4389,-13,66.4,0
19.173,4390,-15,66.4,0
19.173,4391,-16,66.4,0
19.173,4392,-18,66.4,0
19.173,4393,-20,66.4,0
19.193,4394,-24,66.4,0
19.193,4395,-32,66.4,0
19.193,4396,-45,66.4,0
19.193,4397,-62,66.4,0
19.212,4398,-79,66.4,0
19.212,4399,-85,66.4,0
19.212,4400,-69,66.4,0
19.213,4401,-23,66.4,0
19.213,4402,35,66.4,0
19.234,4403,108,66.4,0
19.234,4404,172,66.4,0
19.234,4405,228,66.4,0
19.234,4406,277,66.4,0
19.252,4407,301,66.4,0
19.252,4408,290,66.4,0
19.252,4409,241,66.4,0
19.252,4410,162,66.4,0
19.273,4411,80,66.4,0
19.273,4412,15,66.4,0
19.273,4413,-25,66.4,0
19.273,4414,-45,66.4,0
19.293,4415,-53,66.4,0
19.293,4416,-58,66.4,0
19.293,4417,-64,66.4,0
19.293,4418,-71,66.4,0
19.312,4419,-77,66.4,0
19.312,4420,-81,66.4,0
19.312,4421,-83,66.4,0
19.312,4422,-83,66.4,0
19.332,4423,-82,66.4,0
19.332,4424,-82,66.4,0
19.332,4425,-81,66.4,0
19.332,4426,-80,66.4,0
19.355,4427,-79,66.4,0
19.355,4428,-78,66.4,0
19.355,4429,-76,66.4,0
19.355,4430,-74,66.4,0
19.373,4431,-72,66.4,0
19.373,4432,-69,66.4,0
19.373,4433,-68,66.4,0
19.373,4434,-66,66.4,0
19.402,4435,-63,66.4,0
19.402,4436,-61,66.4,0
19.402,4437,-59,66.4,0
19.402,4438,-57,66.4,0
19.422,4439,-55,66.4,0
19.422,4440,-52,66.4,0
19.422,4441,-50,66.4,0
19.422,4442,-46,66.4,0
19.444,4443,-44,66.4,0
19.444,4444,-41,66.4,0
19.444,4445,-37,66.4,0
19.444,4446,-34,66.4,0
19.463,4447,-29,66.4,0
19.463,4448,-25,66.4,0
19.463,4449,-22,66.4,0
19.463,4450,-20,66.4,0
19.482,4451,-18,66.4,0
19.482,4452,-16,66.4,0
19.482,4453,-14,66.4,0
19.482,4454,-12,66.4,0
19.503,4455,-11,66.4,0
19.503,4456,-9,66.4,0
19.503,4457,-7,66.4,0
19.503,4458,-6,66.4,0
19.503,4459,-6,66.4,0
19.522,4460,-6,66.4,0
19.523,4461,-5,66.4,0
19.523,4462,-5,66.4,0
19.523,4463,-4,66.4,0
19.523,4464,-5,66.4,0
19.546,4465,-6,66.4,0
19.546,4466,-8,66.4,0
19.546,4467,-9,66.4,0
19.546,4468,-11,66.4,0
19.566,4469,-12,66.4,0
19.566,4470,-15,66.4,0
19.566,4471,-17,66.4,0
19.566,4472,-19,66.4,0
19.582,4473,-22,66.4,0
19.582,4474,-23,66.4,0
19.582,4475,-25,66.4,0
19.582,4476,-25,66.4,0
19.613,4477,-26,66.4,0
19.613,4478,-27,66.4,0
19.613,4479,-27,66.4,0
19.613,4480,-27,66.4,0
19.636,4481,-26,66.4,0
19.636,4482,-25,66.4,0
19.636,4483,-24,66.4,0
19.636,4484,-23,66.4,0
19.652,4485,-22,66.4,0
19.652,4486,-20,66.4,0
19.652,4487,-19,66.4,0
19.652,4488,-19,66.4,0
19.676,4489,-18,66.4,0
19.676,4490,-16,66.4,0
19.676,4491,-14,66.4,0
19.676,4492,-13,66.4,0
19.700,4493,-12,66.4,0
19.700,4494,-8,66.4,0
19.700,4495,-8,66.4,0
19.700,4496,-5,66.4,0
19.700,4497,-5,66.4,0
19.716,4498,-5,66.4,0
19.716,4499,-5,66.4,0
19.716,4500,-5,66.4,0
19.716,4501,-5,66.4,0
19.716,4502,-5,66.4,0
19.736,4503,-5,66.4,0
19.736,4504,-4,66.4,0
19.736,4505,-4,66.4,0
19.736,4506,-4,66.4,0
19.736,4507,-4,66.4,0
19.758,4508,-4,66.4,0
19.758,4509,-4,66.4,0
19.758,4510,-4,66.4,0
19.758,4511,-4,66.4,0
19.758,4512,-4,66.4,0
19.772,4513,-5,66.4,0
19.772,4514,-5,66.4,0
19.772,4515,-5,66.4,0
19.772,4516,-6,66.4,0
19.772,4517,-6,66.4,0
19.792,4518,-6,66.4,0
19.792,4519,-6,66.4,0
19.792,4520,-6,66.4,0
19.792,4521,-6,66.4,0
19.792,4522,-6,66.4,0
19.812,4523,-5,66.4,0
19.813,4524,-5,66.4,0
19.813,4525,-4,66.4,0
19.813,4526,-4,66.4,0
19.813,4527,-3,66.4,0
19.845,4528,-2,66.4,0
19.845,4529,-2,66.4,0
19.845,4530,-2,66.4,0
19.845,4531,-1,66.4,0
19.845,4532,-1,66.4,0
19.845,4533,0,66.4,1
19.864,4534,0,66.4,1
19.864,4535,0,66.4,1
19.864,4536,0,66.4,1
19.864,4537,0,66.4,1
19.864,4538,0,66.4,1
19.864,4539,1,66.4,0
19.882,4540,1,66.4,0
19.882,4541,1,66.4,0
19.882,4542,1,66.4,0
19.882,4543,1,66.4,0
19.882,4544,1,66.4,0
19.882,4545,2,66.4,0
19.882,4546,2,66.4,0
19.904,4547,3,66.4,0
19.904,4548,3,66.4,0
19.904,4549,3,66.4,0
19.904,4550,3,66.4,0
19.904,4551,4,66.4,0
19.904,4552,4,66.4,0
19.904,4553,4,66.4,0
19.925,4554,4,66.4,0
19.925,4555,5,66.4,0
19.925,4556,6,66.4,0
19.925,4557,7,66.4,0
19.925,4558,9,66.4,0
19.925,4559,10,66.4,0
19.944,4560,11,66.4,0
19.944,4561,13,66.4,0
19.944,4562,15,66.4,0
19.944,4563,18,66.4,0
19.944,4564,23,66.4,0
19.965,4565,29,66.4,0
19.965,4566,36,66.4,0
19.965,4567,43,66.4,0
19.965,4568,48,66.4,0
19.965,4569,51,66.4,0
19.984,4570,54,66.4,0
19.984,4571,55,66.4,0
19.985,4572,54,66.4,0
19.985,4573,51,66.4,0
19.985,4574,46,66.4,0
20.002,4575,41,66.4,0
20.002,4576,36,66.4,0
20.002,4577,30,66.4,0
20.002,4578,25,66.4,0
20.002,4579,20,66.4,0
20.023,4580,15,66.4,0
20.023,4581,11,66.4,0
20.023,4582,7,66.4,0
20.023,4583,4,66.4,0
20.023,4584,0,66.4,1
20.023,4585,-1,66.4,0
20.047,4586,-3,66.4,0
20.047,4587,-5,66.4,0
20.047,4588,-7,66.4,0
20.047,4589,-8,66.4,0
20.047,4590,-9,66.4,0
20.073,4591,-10,66.4,0
20.073,4592,-12,66.4,0
20.073,4593,-16,66.4,0
20.073,4594,-25,66.4,0
20.093,4595,-39,66.4,0
20.093,4596,-55,66.4,0
20.093,4597,-68,66.4,0
20.093,4598,-70,66.4,0
20.112,4599,-49,66.4,0
20.112,4600,-2,66.4,0
20.112,4601,57,66.4,0
20.112,4602,128,66.4,0
20.133,4603,190,66.4,0
20.133,4604,244,66.4,0
20.133,4605,283,66.4,0
20.133,4606,292,66.4,0
20.153,4607,270,66.4,0
20.153,4608,217,66.4,0
20.153,4609,147,66.4,0
20.153,4610,77,66.4,0
20.174,4611,18,66.4,0
20.174,4612,-25,66.4,0
20.174,4613,-54,66.4,0
20.174,4614,-68,66.4,0
20.193,4615,-73,66.4,0
20.193,4616,-75,66.4,0
20.193,4617,-75,66.4,0
20.193,4618,-77,66.4,0
20.213,4619,-77,66.4,0
20.213,4620,-76,66.4,0
20.213,4621,-73,66.4,0
20.213,4622,-69,66.4,0
20.233,4623,-66,66.4,0
20.233,4624,-62,66.4,0
20.233,4625,-58,66.4,0
20.233,4626,-55,66.4,0
20.253,4627,-52,66.4,0
20.253,4628,-48,66.4,0
20.253,4629,-45,66.4,0
20.253,4630,-42,66.4,0
20.286,4631,-39,66.4,0
20.286,4632,-35,66.4,0
20.286,4633,-32,66.4,0
20.286,4634,-29,66.4,0
20.303,4635,-25,66.4,0
20.303,4636,-22,66.4,0
20.303,4637,-19,66.4,0
20.303,4638,-16,66.4,0
20.323,4639,-13,66.4,0
20.323,4640,-10,66.4,0
20.323,4641,-7,66.4,0
20.323,4642,-3,66.4,0
20.323,4643,0,66.4,1
20.323,4644,2,66.4,0
20.343,4645,5,66.4,0
20.343,4646,8,66.4,0
20.343,4647,11,66.4,0
20.343,4648,13,66.4,0
20.343,4649,16,66.4,0
20.363,4650,18,66.4,0
20.363,4651,19,66.4,0
20.363,4652,21,66.4,0
20.363,4653,22,66.4,0
20.363,4654,23,66.4,0
20.382,4655,24,66.4,0
20.382,4656,25,66.4,0
20.382,4657,26,66.4,0
20.382,4658,26,66.4,0
20.382,4659,27,66.4,0
20.403,4660,27,66.4,0
20.403,4661,27,66.4,0
20.403,4662,27,66.4,0
20.403,4663,26,66.4,0
20.403,4664,24,66.4,0
20.425,4665,23,66.4,0
20.425,4666,22,66.4,0
20.425,4667,21,66.4,0
20.425,4668,19,66.4,0
20.425,4669,17,66.4,0
20.443,4670,16,66.4,0
20.443,4671,15,66.4,0
20.443,4672,14,66.4,0
20.443,4673,12,66.4,0
20.443,4674,11,66.4,0
20.462,4675,10,66.4,0
20.462,4676,9,66.4,0
20.462,4677,8,66.4,0
20.462,4678,6,66.4,0
20.462,4679,5,66.4,0
20.462,4680,4,66.4,0
20.462,4681,3,66.4,0
20.482,4682,3,66.4,0
20.482,4683,3,66.4,0
20.482,4684,3,66.4,0
20.482,4685,3,66.4,0
20.482,4686,4,66.4,0
20.482,4687,4,66.4,0
20.512,4688,4,66.4,0
20.512,4689,4,66.4,0
20.512,4690,5,66.4,0
20.513,4691,6,66.4,0
20.513,4692,7,66.4,0
20.513,4693,8,66.4,0
20.513,4694,8,66.4,0
20.533,4695,9,66.4,0
20.533,4696,10,66.4,0
20.533,4697,11,66.4,0
20.533,4698,12,66.4,0
20.533,4699,12,66.4,0
20.556,4700,13,66.4,0
20.556,4701,14,66.4,0
20.556,4702,15,66.4,0
20.556,4703,16,66.4,0
20.556,4704,16,66.4,0
20.573,4705,16,66.4,0
20.573,4706,16,66.4,0
20.573,4707,16,66.4,0
20.573,4708,16,66.4,0
20.573,4709,16,66.4,0
20.592,4710,16,66.4,0
20.593,4711,16,66.4,0
20.593,4712,15,66.4,0
20.593,4713,15,66.4,0
20.593,4714,14,66.4,0
20.613,4715,14,66.4,0
20.613,4716,13,66.4,0
20.613,4717,12,66.4,0
20.613,4718,12,66.4,0
20.613,4719,12,66.4,0
20.633,4720,11,66.4,0
20.633,4721,11,66.4,0
20.633,4722,11,66.4,0
20.633,4723,10,66.4,0
20.633,4724,9,66.4,0
20.633,4725,9,66.4,0
20.655,4726,8,66.4,0
20.656,4727,7,66.4,0
20.656,4728,7,66.4,0
20.656,4729,7,66.4,0
20.656,4730,7,66.4,0
20.656,4731,7,66.4,0
20.676,4732,7,66.4,0
20.676,4733,7,66.4,0
20.676,4734,7,66.4,0
20.676,4735,7,66.4,0
20.676,4736,7,66.4,0
20.676,4737,6,66.4,0
20.676,4738,6,66.4,0
20.695,4739,6,66.4,0
20.695,4740,6,66.4,0
20.695,4741,6,66.4,0
20.695,4742,6,66.4,0
20.695,4743,5,66.4,0
20.695,4744,5,66.4,0
20.695,4745,5,66.4,0
20.723,4746,5,66.4,0
20.723,4747,5,66.4,0
20.723,4748,5,66.4,0
20.723,4749,5,66.4,0
20.723,4750,6,66.4,0
20.723,4751,6,66.4,0
20.743,4752,6,66.4,0
20.743,4753,7,66.4,0
20.743,4754,7,66.4,0
20.743,4755,7,66.4,0
20.743,4756,8,66.4,0
20.743,4757,8,66.4,0
20.743,4758,7,66.4,0
20.773,4759,7,66.4,0
20.773,4760,7,66.4,0
20.773,4761,7,66.4,0
20.773,4762,7,66.4,0
20.773,4763,6,66.4,0
20.773,4764,6,66.4,0
20.773,4765,6,66.4,0
20.793,4766,6,66.4,0
20.793,4767,7,66.4,0
20.793,4768,8,66.4,0
20.793,4769,9,66.4,0
20.793,4770,11,66.4,0
20.794,4771,12,66.4,0
20.823,4772,13,66.4,0
20.823,4773,14,66.4,0
20.823,4774,15,66.4,0
20.823,4775,18,66.4,0
20.823,4776,22,66.4,0
20.843,4777,29,66.4,0
20.843,4778,37,66.4,0
20.843,4779,44,66.4,0
20.843,4780,51,66.9,0
20.844,4781,56,66.9,0
20.865,4782,58,66.9,0
20.865,4783,59,66.9,0
20.865,4784,57,66.9,0
20.865,4785,55,66.9,0
20.865,4786,50,66.9,0
20.885,4787,45,66.9,0
20.885,4788,39,66.9,0
20.886,4789,32,66.9,0
20.886,4790,26,66.9,0
20.886,4791,20,66.9,0
20.904,4792,14,66.9,0
20.904,4793,9,66.9,0
20.904,4794,4,66.9,0
20.904,4795,1,66.9,0
20.904,4796,-2,66.9,0
20.926,4797,-5,66.9,0
20.926,4798,-8,66.9,0
20.926,4799,-10,66.9,0
20.926,4800,-12,66.9,0
20.926,4801,-14,66.9,0
20.942,4802,-15,66.9,0
20.942,4803,-17,66.9,0
20.942,4804,-19,66.9,0
20.942,4805,-23,66.9,0
20.962,4806,-30,66.9,0
20.962,4807,-43,66.9,0
20.962,4808,-61,66.9,0
20.962,4809,-79,66.9,0
20.985,4810,-89,66.9,0
20.985,4811,-79,66.9,0
20.985,4812,-38,66.9,0
20.985,4813,16,66.9,0
21.013,4814,87,66.9,0
21.013,4815,153,66.9,0
21.013,4816,211,66.9,0
21.013,4817,261,66.9,0
21.032,4818,296,66.9,0
21.032,4819,293,66.9,0
21.032,4820,256,66.9,0
21.032,4821,183,66.9,0
21.052,4822,98,66.9,0
21.052,4823,26,66.9,0
21.052,4824,-21,66.9,0
21.052,4825,-45,66.9,0
21.072,4826,-55,66.9,0
21.072,4827,-59,66.9,0
21.072,4828,-64,66.9,0
21.072,4829,-70,66.9,0
21.093,4830,-76,66.9,0
21.093,4831,-80,66.9,0
21.093,4832,-83,66.9,0
21.093,4833,-83,66.9,0
21.112,4834,-82,66.9,0
21.112,4835,-81,66.9,0
21.112,4836,-80,66.9,0
21.112,4837,-78,66.9,0
21.133,4838,-76,66.9,0
21.133,4839,-74,66.9,0
21.133,4840,-72,66.9,0
21.133,4841,-71,66.9,0
21.153,4842,-69,66.9,0
21.153,4843,-67,66.9,0
21.153,4844,-65,66.9,0
21.153,4845,-64,66.9,0
21.172,4846,-62,66.9,0
21.172,4847,-59,66.9,0
21.172,4848,-57,66.9,0
21.172,4849,-53,66.9,0
21.192,4850,-50,66.9,0
21.192,4851,-45,66.9,0
21.192,4852,-42,66.9,0
21.192,4853,-40,66.9,0
21.227,4854,-37,66.9,0
21.227,4855,-35,66.9,0
21.227,4856,-32,66.9,0
21.227,4857,-29,66.9,0
21.244,4858,-27,66.9,0
21.244,4859,-25,66.9,0
21.244,4860,-22,66.9,0
21.244,4861,-20,66.9,0
21.263,4862,-17,66.9,0
21.263,4863,-15,66.9,0
21.263,4864,-12,66.9,0
21.263,4865,-11,66.9,0
21.263,4866,-9,66.9,0
21.283,4867,-8,66.9,0
21.283,4868,-6,66.9,0
21.283,4869,-5,66.9,0
21.283,4870,-4,66.9,0
21.283,4871,-4,66.9,0
21.302,4872,-5,66.9,0
21.302,4873,-5,66.9,0
21.302,4874,-6,66.9,0
21.302,4875,-7,66.9,0
21.302,4876,-7,66.9,0
21.323,4877,-9,66.9,0
21.323,4878,-11,66.9,0
21.323,4879,-13,66.9,0
21.323,4880,-16,66.9,0
21.343,4881,-18,66.9,0
21.343,4882,-20,66.9,0
21.343,4883,-22,66.9,0
21.343,4884,-24,66.9,0
21.362,4885,-26,66.9,0
21.362,4886,-28,66.9,0
21.362,4887,-29,66.9,0
21.362,4888,-30,66.9,0
21.383,4889,-31,66.9,0
21.383,4890,-32,66.9,0
21.383,4891,-31,66.9,0
21.383,4892,-30,66.9,0
21.404,4893,-30,66.9,0
21.404,4894,-29,66.9,0
21.404,4895,-28,66.9,0
21.404,4896,-28,66.9,0
21.422,4897,-26,66.9,0
21.422,4898,-25,66.9,0
21.422,4899,-24,66.9,0
21.422,4900,-22,66.9,0
21.452,4901,-21,66.9,0
21.452,4902,-19,66.9,0
21.452,4903,-17,66.9,0
21.452,4904,-14,66.9,0
21.472,4905,-13,66.9,0
21.472,4906,-12,66.9,0
21.472,4907,-12,66.9,0
21.472,4908,-12,66.9,0
21.492,4909,-11,66.9,0
21.492,4910,-11,66.9,0
21.492,4911,-11,66.9,0
21.492,4912,-11,66.9,0
21.513,4913,-11,66.9,0
21.513,4914,-11,66.9,0
21.513,4915,-11,66.9,0
21.513,4916,-10,66.9,0
21.532,4917,-10,66.9,0
21.532,4918,-10,66.9,0
21.532,4919,-10,66.9,0
21.532,4920,-10,66.9,0
21.554,4921,-11,66.9,0
21.554,4922,-10,66.9,0
21.554,4923,-10,66.9,0
21.554,4924,-9,66.9,0
21.576,4925,-9,66.9,0
21.576,4926,-9,66.9,0
21.576,4927,-8,66.9,0
21.576,4928,-8,66.9,0
21.576,4929,-7,66.9,0
21.597,4930,-7,66.9,0
21.597,4931,-6,66.9,0
21.597,4932,-5,66.9,0
21.597,4933,-5,66.9,0
21.597,4934,-5,66.9,0
21.613,4935,-5,66.9,0
21.613,4936,-5,66.9,0
21.613,4937,-5,66.9,0
21.613,4938,-5,66.9,0
21.613,4939,-5,66.9,0
21.632,4940,-5,66.9,0
21.633,4941,-5,66.9,0
21.633,4942,-5,66.9,0
21.633,4943,-5,66.9,0
21.633,4944,-6,66.9,0
21.652,4945,-6,66.9,0
21.652,4946,-6,66.9,0
21.652,4947,-6,66.9,0
21.652,4948,-6,66.9,0
21.652,4949,-7,66.9,0
21.682,4950,-7,66.9,0
21.683,4951,-7,66.9,0
21.683,4952,-7,66.9,0
21.683,4953,-6,66.9,0
21.683,4954,-7,66.9,0
21.706,4955,-6,66.9,0
21.706,4956,-6,66.9,0
21.706,4957,-6,66.9,0
21.706,4958,-6,66.9,0
21.706,4959,-7,66.9,0
21.724,4960,-7,66.9,0
21.724,4961,-7,66.9,0
21.724,4962,-6,66.9,0
21.724,4963,-5,66.9,0
21.724,4964,-4,66.9,0
21.748,4965,-2,66.9,0
21.748,4966,0,66.9,1
21.748,4967,2,66.9,0
21.748,4968,4,66.9,0
21.748,4969,6,66.9,0
21.748,4970,7,66.9,0
21.748,4971,9,66.9,0
21.764,4972,12,66.9,0
21.764,4973,17,66.9,0
21.764,4974,23,66.9,0
21.764,4975,31,66.9,0
21.764,4976,38,66.9,0
21.783,4977,44,66.9,0
21.783,4978,48,66.1,0
21.783,4979,50,66.1,0
21.783,4980,50,66.1,0
21.784,4981,49,66.1,0
21.803,4982,46,66.1,0
21.803,4983,41,66.1,0
21.803,4984,36,66.1,0
21.803,4985,31,66.1,0
21.803,4986,26,66.1,0
21.823,4987,21,66.1,0
21.823,4988,15,66.1,0
21.823,4989,10,66.1,0
21.823,4990,5,66.1,0
21.823,4991,1,66.1,0
21.842,4992,-2,66.1,0
21.842,4993,-5,66.1,0
21.842,4994,-9,66.1,0
21.842,4995,-12,66.1,0
21.842,4996,-14,66.1,0
21.865,4997,-16,66.1,0
21.865,4998,-17,66.1,0
21.865,4999,-19,66.1,0
21.865,5000,-20,66.1,0
21.882,5001,-22,66.1,0
21.882,5002,-26,66.1,0
21.882,5003,-36,66.1,0
21.882,5004,-50,66.1,0
21.913,5005,-68,66.1,0
21.913,5006,-85,66.1,0
21.913,5007,-90,66.1,0
21.913,5008,-51,66.1,0
21.932,5009,-7,66.1,0
21.932,5010,71,66.1,0
21.933,5011,138,66.1,0
21.933,5012,170,66.1,0
21.955,5013,165,66.1,0
21.955,5014,118,66.1,0
21.955,5015,46,66.1,0
21.955,5016,-22,66.1,0
21.973,5017,-68,66.1,0
21.973,5018,-91,66.1,0
21.973,5019,-97,66.1,0
21.973,5020,-96,66.1,0
21.993,5021,-93,66.1,0
21.993,5022,-92,66.1,0
21.993,5023,-90,66.1,0
21.993,5024,-88,66.1,0
22.013,5025,-87,66.1,0
22.013,5026,-85,66.1,0
22.013,5027,-82,66.1,0
22.013,5028,-79,66.1,0
22.033,5029,-76,66.1,0
22.033,5030,-74,66.1,0
22.033,5031,-72,66.1,0
22.033,5032,-69,66.1,0
22.053,5033,-66,66.1,0
22.053,5034,-63,66.1,0
22.053,5035,-60,66.1,0
22.053,5036,-56,66.1,0
22.073,5037,-53,66.1,0
22.073,5038,-50,66.1,0
22.073,5039,-47,66.1,0
22.073,5040,-44,66.1,0
22.092,5041,-42,66.1,0
22.092,5042,-39,66.1,0
22.093,5043,-36,66.1,0
22.093,5044,-33,66.1,0
22.123,5045,-31,66.1,0
22.123,5046,-29,66.1,0
22.123,5047,-27,66.1,0
22.123,5048,-25,66.1,0
22.142,5049,-22,66.1,0
22.142,5050,-19,66.1,0
22.142,5051,-16,66.1,0
22.142,5052,-13,66.1,0
22.165,5053,-10,66.1,0
22.165,5054,-6,66.1,0
22.165,5055,-3,66.1,0
22.165,5056,-1,66.1,0
22.165,5057,0,66.1,1
22.165,5058,1,66.1,0
22.182,5059,3,66.1,0
22.182,5060,5,66.1,0
22.182,5061,6,66.1,0
22.182,5062,7,66.1,0
22.182,5063,8,66.1,0
22.182,5064,8,66.1,0
22.203,5065,8,66.1,0
22.203,5066,6,66.1,0
22.203,5067,5,66.1,0
22.203,5068,4,66.1,0
22.203,5069,3,66.1,0
22.203,5070,1,66.1,0
22.203,5071,0,66.1,1
22.224,5072,-2,66.1,0
22.224,5073,-5,66.1,0
22.224,5074,-6,66.1,0
22.224,5075,-8,66.1,0
22.224,5076,-10,66.1,0
22.242,5077,-12,66.1,0
22.243,5078,-13,66.1,0
22.243,5079,-15,66.1,0
22.243,5080,-16,66.1,0
22.264,5081,-18,66.1,0
22.264,5082,-18,66.1,0
22.264,5083,-19,66.1,0
22.264,5084,-19,66.1,0
22.286,5085,-19,66.1,0
22.286,5086,-20,66.1,0
22.286,5087,-20,66.1,0
22.286,5088,-20,66.1,0
22.303,5089,-20,66.1,0
22.303,5090,-19,66.1,0
22.303,5091,-19,66.1,0
22.303,5092,-17,66.1,0
22.322,5093,-16,66.1,0
22.323,5094,-15,66.1,0
22.323,5095,-14,66.1,0
22.323,5096,-12,66.1,0
22.356,5097,-10,66.1,0
22.356,5098,-8,66.1,0
22.356,5099,-5,66.1,0
22.356,5100,-3,66.1,0
22.356,5101,0,66.1,1
22.372,5102,0,66.1,1
22.372,5103,1,66.1,0
22.372,5104,1,66.1,0
22.372,5105,2,66.1,0
22.372,5106,2,66.1,0
22.372,5107,3,66.1,0
22.393,5108,4,66.1,0
22.393,5109,4,66.1,0
22.393,5110,5,66.1,0
22.393,5111,5,66.1,0
22.393,5112,6,66.1,0
22.393,5113,5,66.1,0
22.393,5114,5,66.1,0
22.415,5115,5,66.1,0
22.415,5116,5,66.1,0
22.415,5117,5,66.1,0
22.415,5118,4,66.1,0
22.415,5119,4,66.1,0
22.415,5120,4,66.1,0
22.415,5121,4,66.1,0
22.433,5122,3,66.1,0
22.433,5123,3,66.1,0
22.433,5124,2,66.1,0
22.433,5125,2,66.1,0
22.433,5126,2,66.1,0
22.433,5127,2,66.1,0
22.452,5128,2,66.1,0
22.452,5129,2,66.1,0
22.452,5130,2,66.1,0
22.452,5131,2,66.1,0
22.452,5132,1,66.1,0
22.452,5133,0,66.1,1
22.452,5134,0,66.1,1
22.473,5135,0,66.1,1
22.473,5136,0,66.1,1
22.473,5137,0,66.1,1
22.473,5138,0,66.1,1
22.473,5139,-1,66.1,0
22.473,5140,-1,66.1,0
22.493,5141,-1,66.1,0
22.493,5142,-2,66.1,0
22.493,5143,-3,66.1,0
22.493,5144,-2,66.1,0
22.493,5145,-2,66.1,0
22.513,5146,-2,66.1,0
22.513,5147,-2,66.1,0
22.513,5148,-2,66.1,0
22.513,5149,-2,66.1,0
22.513,5150,-2,66.1,0
22.536,5151,-1,66.1,0
22.536,5152,-1,66.1,0
22.536,5153,-2,66.1,0
22.536,5154,-1,66.1,0
22.536,5155,-1,66.1,0
22.566,5156,-1,66.1,0
22.566,5157,-2,66.1,0
22.566,5158,-2,66.1,0
22.566,5159,-2,66.1,0
22.566,5160,-3,66.1,0
22.583,5161,-2,66.1,0
22.583,5162,-3,66.1,0
22.583,5163,-3,66.1,0
22.583,5164,-3,66.1,0
22.583,5165,-2,66.1,0
22.605,5166,-2,66.1,0
22.605,5167,-2,66.1,0
22.605,5168,-3,66.1,0
22.605,5169,-3,66.1,0
22.605,5170,-2,66.1,0
22.622,5171,-1,66.1,0
22.622,5172,-1,66.1,0
22.622,5173,0,66.1,1
22.622,5174,1,66.1,0
22.622,5175,2,66.1,0
22.622,5176,4,66.1,0
22.644,5177,6,66.1,0
22.644,5178,8,66.1,0
22.644,5179,11,66.1,0
22.644,5180,15,66.1,0
22.644,5181,21,66.1,0
22.665,5182,28,66.1,0
22.665,5183,34,66.1,0
22.665,5184,40,66.1,0
22.665,5185,44,66.1,0
22.665,5186,47,66.6,0
22.682,5187,47,66.6,0
22.682,5188,46,66.6,0
22.682,5189,43,66.6,0
22.682,5190,38,66.6,0
22.682,5191,33,66.6,0
22.703,5192,28,66.6,0
22.703,5193,21,66.6,0
22.703,5194,15,66.6,0
22.703,5195,9,66.6,0
22.703,5196,4,66.6,0
22.703,5197,0,66.6,1
22.725,5198,-3,66.6,0
22.725,5199,-6,66.6,0
22.725,5200,-9,66.6,0
22.725,5201,-11,66.6,0
22.725,5202,-13,66.6,0
22.753,5203,-14,66.6,0
22.753,5204,-16,66.6,0
22.753,5205,-16,66.6,0
22.753,5206,-17,66.6,0
22.773,5207,-18,66.6,0
22.773,5208,-19,66.6,0
22.773,5209,-23,66.6,0
22.773,5210,-29,66.6,0
22.797,5211,-41,66.6,0
22.797,5212,-55,66.6,0
22.797,5213,-71,66.6,0
22.797,5214,-78,66.6,0
22.813,5215,-68,66.6,0
22.813,5216,-28,66.6,0
22.813,5217,26,66.6,0
22.813,5218,96,66.6,0
22.832,5219,163,66.6,0
22.832,5220,222,66.6,0
22.832,5221,270,66.6,0
22.832,5222,292,66.6,0
22.857,5223,283,66.6,0
22.857,5224,238,66.6,0
22.857,5225,169,66.6,0
22.857,5226,95,66.6,0
22.875,5227,29,66.6,0
22.875,5228,-20,66.6,0
22.875,5229,-52,66.6,0
22.875,5230,-69,66.6,0
22.895,5231,-76,66.6,0
22.895,5232,-79,66.6,0
22.895,5233,-81,66.6,0
22.896,5234,-82,66.6,0
22.925,5235,-83,66.6,0
22.925,5236,-82,66.6,0
22.925,5237,-80,66.6,0
22.925,5238,-76,66.6,0
22.936,5239,-73,66.6,0
22.936,5240,-69,66.6,0
22.936,5241,-66,66.6,0
22.936,5242,-64,66.6,0
22.953,5243,-62,66.6,0
22.953,5244,-59,66.6,0
22.953,5245,-56,66.6,0
22.953,5246,-53,66.6,0
22.983,5247,-50,66.6,0
22.983,5248,-48,66.6,0
22.983,5249,-45,66.6,0
22.983,5250,-42,66.6,0
23.003,5251,-39,66.6,0
23.003,5252,-37,66.6,0
23.003,5253,-34,66.6,0
23.003,5254,-32,66.6,0
23.023,5255,-30,66.6,0
23.023,5256,-26,66.6,0
23.023,5257,-23,66.6,0
23.023,5258,-19,66.6,0
23.043,5259,-15,66.6,0
23.043,5260,-12,66.6,0
23.043,5261,-8,66.6,0
23.043,5262,-5,66.6,0
23.043,5263,-1,66.6,0
23.062,5264,1,66.6,0
23.062,5265,4,66.6,0
23.062,5266,6,66.6,0
23.062,5267,9,66.6,0
23.062,5268,12,66.6,0
23.062,5269,15,66.6,0
23.083,5270,16,66.6,0
23.083,5271,17,66.6,0
23.083,5272,18,66.6,0
23.083,5273,18,66.6,0
23.083,5274,18,66.6,0
23.103,5275,17,66.6,0
23.103,5276,17,66.6,0
23.103,5277,17,66.6,0
23.103,5278,16,66.6,0
23.103,5279,15,66.6,0
23.122,5280,13,66.6,0
23.123,5281,12,66.6,0
23.123,5282,10,66.6,0
23.123,5283,8,66.6,0
23.123,5284,6,66.6,0
23.123,5285,4,66.6,0
23.145,5286,2,66.6,0
23.146,5287,0,66.6,1
23.146,5288,-1,66.6,0
23.146,5289,-2,66.6,0
23.146,5290,-4,66.6,0
23.163,5291,-5,66.6,0
23.163,5292,-5,66.6,0
23.163,5293,-6,66.6,0
23.163,5294,-7,66.6,0
23.163,5295,-7,66.6,0
23.182,5296,-8,66.6,0
23.182,5297,-8,66.6,0
23.182,5298,-8,66.6,0
23.182,5299,-8,66.6,0
23.182,5300,-8,66.6,0
23.213,5301,-8,66.6,0
23.213,5302,-8,66.6,0
23.213,5303,-7,66.6,0
23.213,5304,-6,66.6,0
23.213,5305,-5,66.6,0
23.234,5306,-4,66.6,0
23.234,5307,-3,66.6,0
23.234,5308,-1,66.6,0
23.234,5309,0,66.6,1
23.234,5310,0,66.6,1
23.234,5311,2,66.6,0
23.253,5312,3,66.6,0
23.253,5313,5,66.6,0
23.253,5314,7,66.6,0
23.253,5315,8,66.6,0
23.253,5316,10,66.6,0
23.253,5317,10,66.6,0
23.273,5318,10,66.6,0
23.273,5319,9,66.6,0
23.273,5320,9,66.6,0
23.273,5321,10,66.6,0
23.273,5322,11,66.6,0
23.273,5323,11,66.6,0
23.296,5324,11,66.6,0
23.296,5325,11,66.6,0
23.296,5326,11,66.6,0
23.296,5327,11,66.6,0
23.296,5328,11,66.6,0
23.312,5329,10,66.6,0
23.312,5330,10,66.6,0
23.312,5331,9,66.6,0
23.312,5332,9,66.6,0
23.312,5333,9,66.6,0
23.312,5334,9,66.6,0
23.333,5335,8,66.6,0
23.333,5336,8,66.6,0
23.333,5337,8,66.6,0
23.333,5338,7,66.6,0
23.333,5339,6,66.6,0
23.333,5340,6,66.6,0
23.353,5341,6,66.6,0
23.353,5342,7,66.6,0
23.353,5343,7,66.6,0
23.353,5344,6,66.6,0
23.353,5345,6,66.6,0
23.353,5346,7,66.6,0
