Time (s),Sample #,Amplitude
0.055,1,7
0.055,2,12
0.055,3,7
0.055,4,2
0.055,5,-1
0.069,6,-5
0.069,7,-7
0.069,8,-10
0.069,9,-13
0.069,10,-15
0.070,11,-18
0.070,12,-20
0.070,13,-21
0.070,14,-22
0.100,15,-23
0.100,16,-27
0.100,17,-36
0.100,18,-51
0.117,19,-69
0.117,20,-85
0.117,21,-90
0.117,22,-70
0.160,23,-23
0.160,24,36
0.160,25,108
0.160,26,172
0.161,27,227
0.161,28,276
0.161,29,300
0.161,30,286
0.178,31,235
0.178,32,152
0.178,33,67
0.178,34,2
0.204,35,-34
0.204,36,-50
0.204,37,-58
0.204,38,-62
0.224,39,-68
0.224,40,-73
0.225,41,-75
0.225,42,-76
0.252,43,-77
0.252,44,-76
0.252,45,-76
0.252,46,-74
0.266,47,-72
0.266,48,-70
0.266,49,-68
0.266,50,-65
0.286,51,-62
0.286,52,-60
0.286,53,-58
0.286,54,-55
0.310,55,-53
0.310,56,-50
0.310,57,-47
0.310,58,-44
0.324,59,-42
0.324,60,-40
0.325,61,-38
0.325,62,-36
0.358,63,-32
0.358,64,-30
0.358,65,-26
0.358,66,-23
0.370,67,-20
0.370,68,-17
0.370,69,-13
0.370,70,-8
0.370,71,-5
0.384,72,-2
0.384,73,0
0.384,74,2
0.384,75,4
0.384,76,6
0.384,77,7
0.416,78,9
0.416,79,11
0.416,80,12
0.416,81,12
0.416,82,11
0.430,83,10
0.430,84,8
0.430,85,7
0.430,86,6
0.430,87,3
0.430,88,1
0.430,89,-1
0.460,90,-4
0.460,91,-6
0.460,92,-9
0.460,93,-11
0.476,94,-13
0.476,95,-15
0.476,96,-18
0.476,97,-20
0.489,98,-23
0.489,99,-24
0.489,100,-26
0.489,101,-27
0.519,102,-27
0.519,103,-27
0.519,104,-27
0.519,105,-27
0.535,106,-26
0.535,107,-26
0.535,108,-25
0.535,109,-25
0.550,110,-24
0.550,111,-23
0.550,112,-22
0.550,113,-22
0.580,114,-20
0.580,115,-20
0.580,116,-18
0.580,117,-17
0.595,118,-16
0.595,119,-15
0.595,120,-14
0.595,121,-13
0.626,122,-12
0.626,123,-11
0.626,124,-10
0.626,125,-9
0.626,126,-8
0.640,127,-8
0.640,128,-7
0.640,129,-6
0.640,130,-6
0.640,131,-6
0.656,132,-6
0.656,133,-7
0.656,134,-7
0.656,135,-7
0.656,136,-6
0.685,137,-6
0.685,138,-5
0.685,139,-5
0.685,140,-5
0.685,141,-6
0.699,142,-6
0.700,143,-6
0.700,144,-7
0.700,145,-8
0.700,146,-8
0.731,147,-9
0.731,148,-9
0.731,149,-9
0.731,150,-10
0.744,151,-10
0.744,152,-9
0.744,153,-9
0.744,154,-10
0.744,155,-11
0.760,156,-11
0.760,157,-12
0.760,158,-12
0.760,159,-11
0.790,160,-11
0.790,161,-10
0.790,162,-9
0.790,163,-9
0.804,164,-9
0.804,165,-9
0.804,166,-10
0.804,167,-10
0.834,168,-10
0.834,169,-10
0.835,170,-10
0.835,171,-10
0.851,172,-10
0.851,173,-9
0.851,174,-8
0.851,175,-7
0.851,176,-7
0.866,177,-7
0.866,178,-7
0.866,179,-6
0.866,180,-5
0.866,181,-4
0.896,182,-3
0.896,183,-2
0.896,184,-1
0.896,185,0
0.896,186,0
0.896,187,1
0.909,188,3
0.909,189,4
0.909,190,6
0.909,191,8
0.909,192,12
0.909,193,17
0.939,194,23
0.939,195,31
0.939,196,38
0.939,197,45
0.939,198,49
0.957,199,52
0.957,200,52
0.957,201,51
0.957,202,47
0.957,203,42
0.971,204,37
0.971,205,31
0.971,206,25
0.971,207,19
0.971,208,13
1.000,209,8
1.000,210,4
1.000,211,0
1.000,212,-3
1.000,213,-6
1.000,214,-9
1.014,215,-11
1.014,216,-13
1.014,217,-14
1.014,218,-15
1.042,219,-16
1.042,220,-17
1.042,221,-19
1.042,222,-22
1.059,223,-27
1.059,224,-38
1.059,225,-54
1.059,226,-72
1.080,227,-43
1.080,228,-13
1.080,229,60
1.080,230,130
1.099,231,191
1.099,232,245
1.099,233,288
1.099,234,279
1.120,235,246
1.120,236,165
1.120,237,79
1.120,238,12
1.142,239,-29
1.142,240,-48
1.142,241,-57
1.142,242,-61
1.159,243,-66
1.159,244,-69
1.159,245,-71
1.159,246,-72
1.184,247,-73
1.184,248,-73
1.184,249,-71
1.184,250,-70
1.199,251,-69
1.199,252,-68
1.200,253,-66
1.200,254,-64
1.219,255,-61
1.219,256,-58
1.219,257,-56
1.219,258,-55
1.250,259,-53
1.250,260,-50
1.251,261,-48
1.251,262,-45
1.270,263,-44
1.270,264,-42
1.270,265,-40
1.270,266,-37
1.289,267,-34
1.289,268,-31
1.289,269,-29
1.289,270,-26
1.310,271,-23
1.310,272,-20
1.310,273,-16
1.310,274,-13
1.335,275,-10
1.335,276,-7
1.335,277,-6
1.335,278,-4
1.335,279,-3
1.349,280,-2
1.349,281,-1
1.349,282,-1
1.349,283,-1
1.349,284,-2
1.373,285,-2
1.373,286,-3
1.373,287,-4
1.373,288,-6
1.373,289,-8
1.393,290,-9
1.393,291,-11
1.393,292,-13
1.393,293,-15
1.413,294,-18
1.413,295,-20
1.413,296,-23
1.413,297,-25
1.432,298,-27
1.432,299,-29
1.432,300,-30
1.432,301,-31
1.452,302,-32
1.453,303,-32
1.453,304,-33
1.453,305,-32
1.484,306,-32
1.484,307,-32
1.484,308,-31
1.484,309,-30
1.501,310,-27
1.501,311,-26
1.501,312,-24
1.501,313,-22
1.524,314,-20
1.524,315,-18
1.524,316,-17
1.524,317,-16
1.539,318,-15
1.539,319,-14
1.539,320,-13
1.540,321,-13
1.559,322,-12
1.559,323,-11
1.559,324,-10
1.559,325,-10
1.582,326,-10
1.582,327,-10
1.582,328,-10
1.582,329,-10
1.603,330,-10
1.604,331,-10
1.604,332,-11
1.604,333,-11
1.621,334,-12
1.621,335,-12
1.621,336,-12
1.621,337,-12
1.641,338,-12
1.641,339,-12
1.641,340,-11
1.641,341,-11
1.662,342,-10
1.662,343,-10
1.662,344,-10
1.662,345,-10
1.681,346,-10
1.681,347,-10
1.681,348,-9
1.681,349,-8
1.681,350,-7
1.710,351,-6
1.710,352,-6
1.710,353,-6
1.710,354,-6
1.710,355,-5
1.730,356,-5
1.730,357,-4
1.730,358,-4
1.730,359,-5
1.730,360,-4
1.752,361,-4
1.752,362,-3
1.752,363,-3
1.752,364,-3
1.752,365,-2
1.770,366,-1
1.770,367,-1
1.770,368,0
1.770,369,0
1.770,370,0
1.770,371,1
1.792,372,2
1.792,373,2
1.793,374,2
1.793,375,2
1.793,376,2
1.793,377,1
1.793,378,1
1.812,379,1
1.812,380,2
1.812,381,3
1.812,382,5
1.812,383,7
1.812,384,9
1.830,385,11
1.830,386,12
1.830,387,14
1.830,388,17
1.830,389,20
1.852,390,25
1.852,391,31
1.852,392,38
1.852,393,45
1.852,394,50
1.873,395,54
1.873,396,55
1.873,397,54
1.873,398,51
1.873,399,46
1.889,400,41
1.889,401,36
1.889,402,31
1.889,403,25
1.889,404,19
1.920,405,13
1.920,406,9
1.920,407,5
1.920,408,1
1.920,409,-2
1.920,410,-5
1.941,411,-8
1.941,412,-9
1.941,413,-11
1.941,414,-12
1.960,415,-14
1.960,416,-15
1.960,417,-17
1.960,418,-20
1.981,419,-26
1.981,420,-36
1.981,421,-51
1.981,422,-67
2.000,423,-75
2.000,424,-65
2.000,425,-26
2.000,426,27
2.000,427,98
2.020,428,164
2.020,429,221
2.020,430,267
2.020,431,283
2.040,432,268
2.040,433,219
2.040,434,152
2.040,435,84
2.059,436,32
2.059,437,-1
2.059,438,-21
2.059,439,-31
2.080,440,-38
2.080,441,-41
2.080,442,-46
2.080,443,-48
2.100,444,-49
2.100,445,-49
2.100,446,-49
2.100,447,-49
2.122,448,-49
2.122,449,-48
2.122,450,-47
2.122,451,-46
2.152,452,-44
2.152,453,-43
2.152,454,-41
2.152,455,-39
2.173,456,-37
2.173,457,-34
2.173,458,-32
2.173,459,-30
2.190,460,-28
2.190,461,-25
2.190,462,-23
2.190,463,-20
2.210,464,-17
2.210,465,-15
2.210,466,-11
2.210,467,-8
2.210,468,-3
2.233,469,0
2.233,470,3
2.234,471,6
2.234,472,9
2.234,473,11
2.234,474,14
2.250,475,16
2.250,476,18
2.250,477,19
2.250,478,21
2.250,479,23
2.270,480,24
2.270,481,25
2.270,482,25
2.270,483,25
2.270,484,25
2.294,485,24
2.294,486,23
2.294,487,22
2.294,488,21
2.294,489,20
2.310,490,18
2.310,491,16
2.310,492,13
2.310,493,11
2.310,494,9
2.340,495,7
2.340,496,4
2.340,497,2
2.340,498,1
2.340,499,0
2.340,500,0
2.340,501,-1
2.350,502,-3
2.350,503,-3
2.350,504,-4
2.350,505,-5
2.350,506,-5
2.380,507,-5
2.380,508,-4
2.380,509,-3
2.380,510,-2
2.380,511,-2
2.400,512,-1
2.400,513,-1
2.400,514,-1
2.400,515,-1
2.400,516,0
2.431,517,0
2.431,518,1
2.431,519,2
2.431,520,3
2.431,521,4
2.431,522,4
2.431,523,5
2.439,524,5
2.439,525,5
2.439,526,6
2.439,527,6
2.439,528,7
2.439,529,7
2.460,530,6
2.461,531,6
2.461,532,7
2.461,533,8
2.461,534,9
2.461,535,10
2.484,536,10
2.484,537,9
2.484,538,9
2.484,539,8
2.484,540,7
2.484,541,7
2.484,542,6
2.504,543,6
2.504,544,6
2.504,545,5
2.504,546,5
2.504,547,5
2.504,548,4
2.504,549,4
2.532,550,3
2.532,551,2
2.532,552,2
2.532,553,2
2.532,554,1
2.532,555,1
2.560,556,1
2.560,557,2
2.560,558,3
2.560,559,4
2.560,560,4
2.560,561,4
2.560,562,4
2.580,563,3
2.580,564,3
2.580,565,3
2.580,566,3
2.580,567,2
2.580,568,2
2.580,569,2
2.614,570,2
2.614,571,2
2.614,572,2
2.614,573,1
2.614,574,1
2.614,575,1
2.640,576,1
2.640,577,2
2.640,578,3
2.640,579,4
2.640,580,4
2.641,581,4
2.641,582,3
2.661,583,4
2.661,584,4
2.661,585,5
2.661,586,5
2.661,587,6
2.661,588,7
2.661,589,8
2.690,590,9
2.690,591,11
2.690,592,13
2.690,593,15
2.690,594,17
2.712,595,19
2.712,596,23
2.712,597,29
2.712,598,37
2.712,599,44
2.729,600,50
2.729,601,55
2.729,602,58
2.729,603,60
2.729,604,60
2.750,605,58
2.750,606,54
2.750,607,48
2.750,608,42
2.750,609,36
2.771,610,30
2.771,611,24
2.771,612,18
2.771,613,12
2.771,614,8
2.789,615,3
2.789,616,0
2.789,617,-4
2.789,618,-7
2.789,619,-9
2.810,620,-12
2.810,621,-14
2.810,622,-16
2.810,623,-17
2.832,624,-19
2.832,625,-22
2.832,626,-27
2.832,627,-38
2.850,628,-54
2.850,629,-71
2.850,630,-83
2.850,631,-79
2.880,632,-46
2.880,633,4
2.880,634,72
2.880,635,140
2.880,636,200
2.901,637,251
2.901,638,288
2.901,639,290
2.901,640,258
2.919,641,192
2.919,642,112
2.919,643,39
2.919,644,-13
2.952,645,-45
2.952,646,-60
2.952,647,-66
2.952,648,-68
2.961,649,-71
2.961,650,-74
2.961,651,-77
2.961,652,-78
2.980,653,-77
2.980,654,-76
2.980,655,-74
2.980,656,-72
3.002,657,-70
3.002,658,-66
3.002,659,-63
3.002,660,-59
3.021,661,-56
3.021,662,-53
3.021,663,-50
3.021,664,-48
3.039,665,-45
3.039,666,-43
3.039,667,-40
3.039,668,-38
3.067,669,-34
3.067,670,-31
3.067,671,-28
3.067,672,-25
3.079,673,-23
3.079,674,-20
3.079,675,-18
3.079,676,-15
3.109,677,-12
3.109,678,-9
3.109,679,-6
3.109,680,-3
3.109,681,-1
3.129,682,1
3.129,683,4
3.129,684,7
3.129,685,10
3.129,686,12
3.129,687,14
3.150,688,15
3.150,689,16
3.150,690,16
3.150,691,17
3.150,692,18
3.169,693,19
3.169,694,19
3.169,695,18
3.169,696,17
3.169,697,16
3.193,698,14
3.193,699,13
3.193,700,11
3.193,701,9
3.193,702,7
3.193,703,5
3.209,704,3
3.209,705,0
3.209,706,-1
3.209,707,-3
3.209,708,-5
3.229,709,-6
3.229,710,-7
3.229,711,-9
3.229,712,-10
3.229,713,-11
3.254,714,-12
3.254,715,-14
3.254,716,-14
3.254,717,-15
3.269,718,-16
3.269,719,-16
3.269,720,-16
3.270,721,-15
3.289,722,-14
3.289,723,-13
3.289,724,-11
3.289,725,-10
3.312,726,-9
3.312,727,-8
3.312,728,-7
3.312,729,-6
3.312,730,-5
3.340,731,-4
3.340,732,-3
3.340,733,-3
3.340,734,-3
3.340,735,-2
3.362,736,-2
3.362,737,-2
3.362,738,-2
3.362,739,-3
3.362,740,-2
3.379,741,-2
3.379,742,-3
3.379,743,-3
3.379,744,-3
3.379,745,-3
3.400,746,-2
3.400,747,-2
3.400,748,-2
3.400,749,-1
3.400,750,-2
3.419,751,-2
3.419,752,-2
3.420,753,-2
3.420,754,-1
3.420,755,-1
3.439,756,-2
3.439,757,-1
3.439,758,-2
3.439,759,-1
3.439,760,-2
3.460,761,-2
3.460,762,-2
3.460,763,-2
3.460,764,-2
3.460,765,-3
3.485,766,-4
3.485,767,-4
3.485,768,-5
3.485,769,-5
3.485,770,-6
3.499,771,-6
3.499,772,-5
3.499,773,-5
3.499,774,-5
3.499,775,-5
3.523,776,-5
3.523,777,-5
3.523,778,-5
3.523,779,-6
3.523,780,-6
3.542,781,-6
3.542,782,-6
3.542,783,-6
3.542,784,-7
3.542,785,-7
3.569,786,-7
3.569,787,-7
3.569,788,-7
3.569,789,-7
3.569,790,-7
3.590,791,-7
3.590,792,-7
3.590,793,-6
3.590,794,-6
3.590,795,-6
3.612,796,-5
3.612,797,-4
3.612,798,-3
3.612,799,-1
3.612,800,0
3.629,801,2
3.629,802,4
3.629,803,7
3.629,804,11
3.629,805,17
3.629,806,24
3.651,807,31
3.651,808,38
3.651,809,42
3.651,810,45
3.651,811,46
3.673,812,45
3.673,813,42
3.673,814,38
3.673,815,32
3.673,816,26
3.694,817,21
3.694,818,15
3.694,819,10
3.694,820,5
3.694,821,0
3.712,822,-3
3.712,823,-7
3.712,824,-11
3.712,825,-15
3.732,826,-18
3.732,827,-20
3.732,828,-21
3.732,829,-22
3.750,830,-24
3.750,831,-25
3.750,832,-26
3.750,833,-31
3.784,834,-41
3.784,835,-56
3.784,836,-74
3.784,837,-87
3.804,838,-84
3.804,839,-44
3.804,840,-1
3.804,841,36
3.804,842,35
3.819,843,-8
3.819,844,-71
3.819,845,-124
3.819,846,-152
3.844,847,-159
3.844,848,-152
3.844,849,-143
3.862,850,-136
3.862,851,-130
3.862,852,-125
3.882,853,-119
3.882,854,-112
3.882,855,-106
3.882,856,-100
3.900,857,-94
3.901,858,-87
3.901,859,-81
3.901,860,-76
3.919,861,-72
3.919,862,-68
3.919,863,-64
3.919,864,-60
3.940,865,-56
3.940,866,-52
3.940,867,-48
3.940,868,-44
3.961,869,-41
3.961,870,-38
3.962,871,-34
3.962,872,-31
3.979,873,-27
3.979,874,-24
3.979,875,-22
3.979,876,-18
4.012,877,-15
4.012,878,-11
4.012,879,-7
4.012,880,-3
4.012,881,0
4.032,882,3
4.032,883,6
4.032,884,8
4.032,885,10
4.032,886,12
4.050,887,14
4.050,888,16
4.050,889,17
4.050,890,17
4.050,891,18
4.072,892,18
4.072,893,17
4.072,894,16
4.072,895,14
4.072,896,13
4.092,897,11
4.092,898,10
4.092,899,8
4.092,900,5
4.092,901,3
4.092,902,0
4.112,903,-1
4.112,904,-3
4.112,905,-5
4.112,906,-7
4.112,907,-8
4.130,908,-9
4.130,909,-11
4.130,910,-12
4.130,911,-14
4.153,912,-14
4.153,913,-14
4.153,914,-15
4.153,915,-15
4.170,916,-15
4.170,917,-15
4.170,918,-14
4.170,919,-14
4.190,920,-13
4.190,921,-13
4.190,922,-12
4.190,923,-10
4.190,924,-8
4.213,925,-6
4.213,926,-4
4.213,927,-3
4.213,928,-2
4.213,929,-1
4.242,930,0
4.242,931,0
4.242,932,1
4.242,933,1
4.242,934,2
4.242,935,2
4.261,936,2
4.261,937,3
4.261,938,3
4.261,939,3
4.261,940,4
4.261,941,4
4.261,942,4
4.279,943,3
4.279,944,3
4.279,945,4
4.279,946,4
4.279,947,4
4.279,948,4
4.279,949,4
4.314,950,3
4.314,951,3
4.314,952,4
4.314,953,4
4.314,954,4
4.314,955,4
4.321,956,4
4.321,957,5
4.321,958,5
4.321,959,6
4.321,960,5
4.321,961,5
4.321,962,5
4.339,963,5
4.339,964,6
4.339,965,6
4.339,966,6
4.339,967,6
4.339,968,5
4.339,969,5
4.372,970,5
4.373,971,5
4.373,972,6
4.373,973,6
4.373,974,6
4.373,975,6
4.393,976,6
4.393,977,6
4.393,978,7
4.393,979,8
4.393,980,8
4.393,981,8
4.393,982,8
4.419,983,8
4.419,984,8
4.419,985,8
4.419,986,8
4.419,987,8
4.419,988,8
4.419,989,8
4.439,990,9
4.440,991,9
4.440,992,10
4.440,993,10
4.440,994,11
4.460,995,11
4.460,996,12
4.460,997,15
4.460,998,16
4.460,999,19
4.501,1000,20
4.501,1001,21
4.501,1002,24
4.501,1003,27
4.501,1004,33
4.512,1005,39
4.512,1006,46
4.512,1007,52
4.512,1008,57
4.512,1009,62
4.530,1010,64
4.530,1011,64
4.530,1012,61
4.530,1013,56
4.530,1014,51
4.550,1015,45
4.550,1016,39
4.550,1017,33
4.550,1018,26
4.550,1019,21
4.573,1020,16
4.574,1021,11
4.574,1022,6
4.574,1023,2
4.574,1024,0
4.574,1025,-3
4.590,1026,-6
4.590,1027,-8
4.590,1028,-11
4.590,1029,-13
4.620,1030,-14
4.620,1031,-16
4.620,1032,-19
4.620,1033,-23
4.633,1034,-29
4.633,1035,-41
4.633,1036,-57
4.633,1037,-75
4.652,1038,-86
4.652,1039,-78
4.652,1040,-39
4.652,1041,15
4.652,1042,86
4.672,1043,154
4.672,1044,213
4.672,1045,264
4.672,1046,300
4.703,1047,297
4.703,1048,259
4.703,1049,185
4.703,1050,98
4.719,1051,26
4.719,1052,-21
4.719,1053,-44
4.719,1054,-53
4.739,1055,-57
4.739,1056,-62
4.739,1057,-68
4.739,1058,-74
4.764,1059,-77
4.764,1060,-77
4.764,1061,-76
4.764,1062,-74
4.780,1063,-73
4.780,1064,-72
4.780,1065,-69
4.780,1066,-67
4.799,1067,-64
4.799,1068,-62
4.799,1069,-59
4.799,1070,-57
4.819,1071,-55
4.819,1072,-53
4.819,1073,-50
4.819,1074,-48
4.842,1075,-45
4.842,1076,-43
4.842,1077,-40
4.842,1078,-38
4.862,1079,-36
4.862,1080,-33
4.862,1081,-30
4.862,1082,-27
4.880,1083,-25
4.880,1084,-21
4.880,1085,-18
4.880,1086,-15
4.913,1087,-11
4.913,1088,-8
4.913,1089,-5
4.913,1090,-2
4.914,1091,0
4.940,1092,1
4.940,1093,3
4.940,1094,4
4.940,1095,6
4.940,1096,7
4.940,1097,9
4.940,1098,10
4.952,1099,10
4.952,1100,10
4.952,1101,9
4.952,1102,9
4.952,1103,9
4.952,1104,8
4.972,1105,8
4.972,1106,6
4.972,1107,4
4.972,1108,2
4.972,1109,0
4.972,1110,-1
4.992,1111,-3
4.992,1112,-5
4.992,1113,-8
4.992,1114,-11
5.010,1115,-13
5.010,1116,-16
5.010,1117,-18
5.010,1118,-21
5.029,1119,-22
5.029,1120,-23
5.029,1121,-23
5.029,1122,-24
5.050,1123,-25
5.050,1124,-25
5.050,1125,-25
5.050,1126,-26
5.070,1127,-26
5.070,1128,-26
5.070,1129,-27
5.070,1130,-26
5.092,1131,-25
5.092,1132,-23
5.092,1133,-21
5.092,1134,-20
5.117,1135,-16
5.117,1136,-15
5.117,1137,-13
5.117,1138,-13
5.142,1139,-12
5.142,1140,-9
5.142,1141,-8
5.142,1142,-6
5.142,1143,-6
5.160,1144,-6
5.160,1145,-6
5.160,1146,-7
5.160,1147,-8
5.160,1148,-8
5.182,1149,-8
5.182,1150,-9
5.182,1151,-9
5.182,1152,-9
5.182,1153,-9
5.200,1154,-8
5.200,1155,-8
5.200,1156,-8
5.200,1157,-8
5.200,1158,-8
5.220,1159,-8
5.220,1160,-8
5.220,1161,-7
5.220,1162,-7
5.220,1163,-6
5.243,1164,-6
5.243,1165,-6
5.243,1166,-6
5.243,1167,-6
5.243,1168,-5
5.260,1169,-5
5.260,1170,-4
5.260,1171,-4
5.260,1172,-4
5.260,1173,-3
5.279,1174,-3
5.279,1175,-3
5.280,1176,-3
5.280,1177,-2
5.280,1178,-2
5.307,1179,-1
5.307,1180,0
5.307,1181,0
5.307,1182,0
5.307,1183,0
5.307,1184,0
5.307,1185,0
5.319,1186,0
5.319,1187,-1
5.319,1188,-1
5.319,1189,-2
5.319,1190,-2
5.340,1191,-1
5.340,1192,-1
5.340,1193,-1
5.340,1194,-1
5.340,1195,-1
5.369,1196,-1
5.369,1197,0
5.369,1198,0
5.369,1199,0
5.369,1200,2
5.369,1201,3
5.369,1202,6
5.390,1203,7
5.390,1204,9
5.390,1205,11
5.390,1206,15
5.390,1207,20
5.412,1208,27
5.412,1209,34
5.412,1210,41
5.412,1211,46
5.412,1212,51
5.431,1213,53
5.431,1214,52
5.431,1215,50
5.431,1216,45
5.431,1217,41
5.449,1218,35
5.449,1219,30
5.449,1220,24
5.450,1221,18
5.450,1222,12
5.473,1223,8
5.473,1224,3
5.473,1225,0
5.473,1226,-3
5.473,1227,-6
5.473,1228,-9
5.489,1229,-11
5.489,1230,-13
5.489,1231,-15
5.489,1232,-17
5.510,1233,-18
5.510,1234,-19
5.510,1235,-21
5.510,1236,-25
5.533,1237,-32
5.533,1238,-44
5.533,1239,-59
5.533,1240,-75
5.552,1241,-80
5.552,1242,-42
5.552,1243,1
5.552,1244,79
5.569,1245,148
5.570,1246,208
5.570,1247,257
5.570,1248,278
5.605,1249,251
5.605,1250,207
5.605,1251,126
5.605,1252,60
5.605,1253,10
5.620,1254,-21
5.620,1255,-36
5.620,1256,-45
5.620,1257,-46
5.640,1258,-49
5.640,1259,-51
5.640,1260,-52
5.640,1261,-52
5.663,1262,-52
5.663,1263,-51
5.663,1264,-48
5.663,1265,-47
5.680,1266,-45
5.680,1267,-44
5.680,1268,-44
5.680,1269,-42
5.700,1270,-41
5.700,1271,-39
5.700,1272,-37
5.700,1273,-35
5.723,1274,-33
5.723,1275,-30
5.723,1276,-27
5.723,1277,-25
5.739,1278,-23
5.739,1279,-21
5.739,1280,-18
5.739,1281,-15
5.760,1282,-12
5.760,1283,-8
5.760,1284,-4
5.760,1285,-1
5.760,1286,2
5.783,1287,5
5.783,1288,8
5.783,1289,11
5.783,1290,13
5.783,1291,16
5.810,1292,17
5.810,1293,19
5.810,1294,21
5.810,1295,22
5.810,1296,23
5.831,1297,24
5.831,1298,25
5.831,1299,25
5.831,1300,25
5.831,1301,25
5.849,1302,24
5.849,1303,23
5.849,1304,22
5.849,1305,20
5.849,1306,19
5.871,1307,17
5.871,1308,18
5.871,1309,15
5.871,1310,15
5.871,1311,11
5.871,1312,7
5.890,1313,7
5.890,1314,4
5.890,1315,4
5.890,1316,1
5.890,1317,-1
5.890,1318,0
5.914,1319,-1
5.914,1320,0
5.914,1321,-1
5.914,1322,-2
5.914,1323,-1
5.930,1324,-2
5.930,1325,-1
5.930,1326,-2
5.930,1327,-3
5.930,1328,0
5.930,1329,0
5.951,1330,2
5.951,1331,2
5.951,1332,2
5.951,1333,5
5.951,1334,6
5.951,1335,9
5.970,1336,10
5.970,1337,10
5.970,1338,13
5.970,1339,13
5.970,1340,16
5.990,1341,15
5.990,1342,15
5.990,1343,17
5.990,1344,17
5.990,1345,19
6.009,1346,17
6.009,1347,16
6.009,1348,18
6.009,1349,17
6.009,1350,19
6.042,1351,17
6.042,1352,15
6.042,1353,17
6.042,1354,16
6.042,1355,18
6.069,1356,16
6.069,1357,15
6.069,1358,16
6.069,1359,15
6.069,1360,16
6.084,1361,15
6.084,1362,13
6.084,1363,13
6.084,1364,12
6.084,1365,12
6.100,1366,11
6.100,1367,10
6.100,1368,9
6.100,1369,8
6.100,1370,8
6.100,1371,8
6.120,1372,7
6.120,1373,11
6.120,1374,10
6.120,1375,12
6.120,1376,11
6.120,1377,9
6.145,1378,8
6.145,1379,7
6.145,1380,8
6.145,1381,8
6.145,1382,8
6.145,1383,7
6.160,1384,7
6.160,1385,6
6.160,1386,6
6.160,1387,6
6.160,1388,6
6.160,1389,6
6.160,1390,6
6.180,1391,6
6.180,1392,6
6.180,1393,6
6.180,1394,5
6.180,1395,5
6.180,1396,5
6.180,1397,5
6.204,1398,6
6.204,1399,6
6.204,1400,7
6.207,1401,8
6.207,1402,8
6.207,1403,10
6.220,1404,11
6.220,1405,13
6.220,1406,14
6.220,1407,16
6.220,1408,19
6.250,1409,23
6.250,1410,30
6.250,1411,37
6.250,1412,44
6.250,1413,49
6.279,1414,53
6.280,1415,56
6.280,1416,57
6.280,1417,56
6.280,1418,55
6.290,1419,50
6.290,1420,46
6.290,1421,39
6.290,1422,33
6.290,1423,27
6.310,1424,22
6.310,1425,18
6.310,1426,14
6.310,1427,9
6.310,1428,8
6.310,1429,4
6.334,1430,3
6.334,1431,0
6.334,1432,-3
6.334,1433,-2
6.334,1434,-4
6.350,1435,-4
6.350,1436,-7
6.350,1437,-10
6.350,1438,-10
6.371,1439,-18
6.371,1440,-27
6.371,1441,-44
6.371,1442,-62
6.396,1443,-69
6.396,1444,-60
6.396,1445,-19
6.396,1446,33
6.396,1447,102
6.422,1448,167
6.422,1449,223
6.422,1450,272
6.422,1451,297
6.442,1452,290
6.442,1453,250
6.442,1454,180
6.442,1455,103
6.461,1456,33
6.461,1457,-18
6.461,1458,-50
6.461,1459,-67
6.480,1460,-73
6.480,1461,-75
6.480,1462,-76
6.480,1463,-79
6.500,1464,-81
6.500,1465,-81
6.500,1466,-80
6.500,1467,-78
6.522,1468,-75
6.522,1469,-72
6.522,1470,-69
6.522,1471,-65
6.540,1472,-62
6.540,1473,-56
6.540,1474,-54
6.540,1475,-49
6.562,1476,-47
6.562,1477,-45
6.562,1478,-43
6.562,1479,-40
6.583,1480,-37
6.583,1481,-35
6.583,1482,-33
6.583,1483,-31
6.600,1484,-29
6.600,1485,-26
6.600,1486,-23
6.600,1487,-20
6.625,1488,-17
6.625,1489,-15
6.625,1490,-11
6.625,1491,-8
6.652,1492,-4
6.652,1493,0
6.652,1494,2
6.652,1495,6
6.652,1496,9
6.652,1497,11
6.672,1498,14
6.672,1499,16
6.672,1500,18
6.672,1501,20
6.672,1502,21
6.691,1503,22
6.691,1504,22
6.691,1505,23
6.691,1506,23
6.691,1507,23
6.710,1508,22
6.710,1509,21
6.710,1510,20
6.710,1511,17
6.710,1512,15
6.730,1513,13
6.730,1514,11
6.730,1515,9
6.730,1516,6
6.730,1517,4
6.730,1518,3
6.754,1519,1
6.754,1520,0
6.754,1521,-2
6.754,1522,-3
6.754,1523,-4
6.754,1524,-5
6.770,1525,-6
6.770,1526,-7
6.770,1527,-8
6.770,1528,-8
6.770,1529,-8
6.791,1530,-8
6.791,1531,-9
6.791,1532,-9
6.791,1533,-9
6.791,1534,-9
6.811,1535,-8
6.811,1536,-8
6.811,1537,-8
6.811,1538,-7
6.811,1539,-7
6.842,1540,-6
6.842,1541,-6
6.842,1542,-5
6.842,1543,-4
6.842,1544,-2
6.850,1545,-1
6.850,1546,-1
6.850,1547,0
6.850,1548,0
6.850,1549,0
6.850,1550,0
6.884,1551,0
6.884,1552,0
6.884,1553,0
6.884,1554,0
6.884,1555,1
6.884,1556,1
6.902,1557,0
6.902,1558,0
6.902,1559,-2
6.902,1560,-3
6.902,1561,-4
6.902,1562,-5
6.920,1563,-5
6.920,1564,-5
6.920,1565,-5
6.920,1566,-6
6.920,1567,-6
6.941,1568,-7
6.941,1569,-7
6.941,1570,-7
6.942,1571,-7
6.942,1572,-7
6.963,1573,-7
6.963,1574,-7
6.963,1575,-7
6.963,1576,-7
6.963,1577,-7
6.982,1578,-7
6.982,1579,-6
6.982,1580,-6
6.982,1581,-6
6.982,1582,-6
7.004,1583,-6
7.004,1584,-6
7.004,1585,-6
7.004,1586,-6
7.004,1587,-6
7.019,1588,-6
7.019,1589,-6
7.019,1590,-6
7.019,1591,-5
7.019,1592,-5
7.043,1593,-5
7.043,1594,-5
7.043,1595,-5
7.043,1596,-5
7.043,1597,-5
7.064,1598,-5
7.064,1599,-6
7.064,1600,-6
7.064,1601,-5
7.064,1602,-5
7.090,1603,-5
7.090,1604,-5
7.090,1605,-5
7.090,1606,-5
7.090,1607,-5
7.112,1608,-5
7.112,1609,-5
7.112,1610,-5
7.112,1611,-4
7.112,1612,-4
7.131,1613,-3
7.131,1614,-2
7.131,1615,0
7.131,1616,0
7.131,1617,2
7.131,1618,3
7.152,1619,5
7.152,1620,8
7.153,1621,13
7.153,1622,20
7.153,1623,27
7.170,1624,34
7.170,1625,40
7.170,1626,44
7.170,1627,46
7.170,1628,46
7.189,1629,45
7.190,1630,41
7.190,1631,36
7.190,1632,31
7.190,1633,26
7.212,1634,20
7.212,1635,15
7.212,1636,9
7.212,1637,4
7.212,1638,1
7.212,1639,-2
7.231,1640,-5
7.231,1641,-9
7.231,1642,-11
7.231,1643,-14
7.250,1644,-16
7.250,1645,-17
7.250,1646,-20
7.250,1647,-21
7.272,1648,-22
7.272,1649,-23
7.272,1650,-26
7.272,1651,-34
7.290,1652,-47
7.290,1653,-63
7.290,1654,-78
7.290,1655,-82
7.330,1656,-63
7.330,1657,-17
7.330,1658,41
7.330,1659,113
7.340,1660,163
7.340,1661,174
7.340,1662,147
7.340,1663,83
7.340,1664,9
7.363,1665,-49
7.363,1666,-85
7.363,1667,-99
7.363,1668,-103
7.382,1669,-101
7.382,1670,-101
7.382,1671,-100
7.400,1672,-99
7.400,1673,-97
7.400,1674,-94
7.400,1675,-90
7.423,1676,-87
7.423,1677,-84
7.423,1678,-80
7.423,1679,-76
7.440,1680,-72
7.440,1681,-68
7.440,1682,-64
7.440,1683,-61
7.460,1684,-58
7.460,1685,-54
7.460,1686,-51
7.460,1687,-48
7.484,1688,-45
7.484,1689,-41
7.484,1690,-38
7.484,1691,-35
7.500,1692,-33
7.500,1693,-30
7.500,1694,-27
7.500,1695,-23
7.520,1696,-19
7.520,1697,-16
7.520,1698,-11
7.520,1699,-8
7.520,1700,-2
7.550,1701,3
7.550,1702,5
7.550,1703,10
7.550,1704,11
7.550,1705,12
7.572,1706,17
7.572,1707,18
7.572,1708,22
7.572,1709,25
7.572,1710,24
7.592,1711,26
7.592,1712,25
7.592,1713,23
7.592,1714,22
7.592,1715,21
7.610,1716,20
7.610,1717,17
7.610,1718,15
7.610,1719,12
7.610,1720,8
7.610,1721,6
7.630,1722,3
7.630,1723,0
7.630,1724,-1
7.630,1725,-4
7.630,1726,-6
7.651,1727,-8
7.651,1728,-10
7.651,1729,-11
7.651,1730,-13
7.670,1731,-14
7.670,1732,-15
7.670,1733,-16
7.670,1734,-17
7.697,1735,-18
7.698,1736,-18
7.698,1737,-18
7.698,1738,-17
7.710,1739,-17
7.710,1740,-15
7.710,1741,-14
7.710,1742,-14
7.733,1743,-12
7.733,1744,-11
7.733,1745,-10
7.733,1746,-8
7.733,1747,-7
7.750,1748,-6
7.750,1749,-5
7.750,1750,-3
7.750,1751,-2
7.750,1752,-1
7.786,1753,-1
7.786,1754,0
7.786,1755,0
7.786,1756,0
7.786,1757,0
7.786,1758,0
7.800,1759,1
7.800,1760,1
7.800,1761,1
7.800,1762,2
7.800,1763,2
7.800,1764,2
7.800,1765,1
7.820,1766,1
7.820,1767,1
7.820,1768,1
7.820,1769,5
7.820,1770,4
7.820,1771,7
7.844,1772,6
7.844,1773,5
7.844,1774,8
7.844,1775,8
7.844,1776,10
7.844,1777,9
7.844,1778,8
7.861,1779,10
7.862,1780,9
7.862,1781,11
7.862,1782,10
7.862,1783,9
7.880,1784,12
7.880,1785,11
7.880,1786,12
7.880,1787,10
7.880,1788,8
7.903,1789,10
7.903,1790,9
7.903,1791,11
7.903,1792,9
7.903,1793,8
7.903,1794,10
7.922,1795,9
7.922,1796,11
7.922,1797,10
7.922,1798,9
7.922,1799,11
7.922,1800,10
7.942,1801,11
7.942,1802,9
7.942,1803,7
7.942,1804,8
7.942,1805,7
7.942,1806,8
7.969,1807,7
7.970,1808,6
7.970,1809,8
7.970,1810,7
7.970,1811,8
7.970,1812,6
7.970,1813,5
7.990,1814,5
7.990,1815,4
7.990,1816,4
7.990,1817,4
7.990,1818,3
7.990,1819,2
8.022,1820,1
8.022,1821,0
8.022,1822,0
8.022,1823,1
8.022,1824,3
8.022,1825,4
8.022,1826,5
8.040,1827,6
8.040,1828,8
8.040,1829,14
8.040,1830,17
8.040,1831,25
8.059,1832,30
8.059,1833,36
8.059,1834,45
8.059,1835,50
8.059,1836,56
8.093,1837,57
8.093,1838,56
8.093,1839,56
8.093,1840,51
8.093,1841,48
8.109,1842,41
8.109,1843,34
8.109,1844,26
8.109,1845,19
8.109,1846,12
8.109,1847,6
8.132,1848,1
8.132,1849,-2
8.132,1850,-6
8.132,1851,-9
8.132,1852,-12
8.151,1853,-15
8.151,1854,-18
8.151,1855,-20
8.151,1856,-22
8.172,1857,-24
8.172,1858,-25
8.172,1859,-27
8.172,1860,-31
8.191,1861,-38
8.191,1862,-50
8.191,1863,-65
8.191,1864,-80
8.212,1865,-87
8.212,1866,-76
8.212,1867,-34
8.212,1868,21
8.229,1869,94
8.229,1870,160
8.230,1871,217
8.230,1872,266
8.250,1873,288
8.250,1874,277
8.250,1875,229
8.250,1876,153
8.285,1877,71
8.285,1878,1
8.285,1879,-48
8.285,1880,-79
8.285,1881,-94
8.299,1882,-99
8.299,1883,-99
8.299,1884,-99
8.319,1885,-101
8.319,1886,-102
8.319,1887,-102
8.319,1888,-99
8.340,1889,-94
8.340,1890,-87
8.340,1891,-85
8.340,1892,-81
8.361,1893,-79
8.361,1894,-76
8.361,1895,-70
8.361,1896,-67
8.382,1897,-62
8.382,1898,-61
8.382,1899,-60
8.382,1900,-58
8.403,1901,-55
8.403,1902,-52
8.403,1903,-49
8.403,1904,-48
8.419,1905,-46
8.419,1906,-44
8.419,1907,-42
8.419,1908,-39
8.442,1909,-36
8.442,1910,-32
8.442,1911,-28
8.442,1912,-24
8.459,1913,-19
8.459,1914,-15
8.459,1915,-11
8.459,1916,-8
8.479,1917,-6
8.479,1918,-5
8.479,1919,-4
8.479,1920,-3
8.479,1921,-1
8.479,1922,0
8.511,1923,2
8.511,1924,3
8.511,1925,3
8.511,1926,3
8.511,1927,2
8.511,1928,0
8.530,1929,0
8.530,1930,-1
8.530,1931,-2
8.530,1932,-4
8.530,1933,-7
8.549,1934,-11
8.550,1935,-15
8.550,1936,-18
8.550,1937,-19
8.571,1938,-20
8.571,1939,-21
8.571,1940,-22
8.572,1941,-24
8.589,1942,-27
8.589,1943,-30
8.589,1944,-32
8.589,1945,-34
8.610,1946,-34
8.610,1947,-35
8.610,1948,-36
8.610,1949,-35
8.630,1950,-35
8.630,1951,-31
8.630,1952,-31
8.630,1953,-27
8.649,1954,-26
8.649,1955,-25
8.649,1956,-23
8.649,1957,-21
8.670,1958,-19
8.670,1959,-18
8.670,1960,-17
8.670,1961,-15
8.692,1962,-14
8.692,1963,-12
8.692,1964,-10
8.692,1965,-7
8.692,1966,-6
8.722,1967,-6
8.722,1968,-7
8.722,1969,-8
8.722,1970,-8
8.722,1971,-8
8.742,1972,-7
8.742,1973,-7
8.742,1974,-7
8.742,1975,-7
8.742,1976,-6
8.761,1977,-6
8.761,1978,-5
8.761,1979,-5
8.761,1980,-4
8.761,1981,-2
8.780,1982,-1
8.780,1983,0
8.780,1984,0
8.780,1985,0
8.780,1986,0
8.780,1987,0
8.800,1988,0
8.800,1989,-1
8.800,1990,-1
8.800,1991,0
8.800,1992,1
8.800,1993,2
8.820,1994,2
8.821,1995,0
8.821,1996,0
8.821,1997,0
8.821,1998,1
8.821,1999,1
8.821,2000,1
8.839,2001,1
8.839,2002,1
8.839,2003,0
8.839,2004,0
8.839,2005,0
8.839,2006,0
8.864,2007,2
8.864,2008,3
8.864,2009,5
8.864,2010,7
8.864,2011,10
8.864,2012,13
8.880,2013,15
8.880,2014,17
8.880,2015,21
8.880,2016,27
8.880,2017,34
8.899,2018,41
8.899,2019,48
8.899,2020,54
8.900,2021,58
8.900,2022,59
8.920,2023,57
8.920,2024,53
8.920,2025,48
8.920,2026,43
8.920,2027,36
8.954,2028,29
8.954,2029,21
8.954,2030,13
8.954,2031,7
8.954,2032,1
8.954,2033,-3
8.977,2034,-8
8.977,2035,-13
8.978,2036,-18
8.978,2037,-22
8.995,2038,-25
8.995,2039,-26
8.995,2040,-27
8.995,2041,-29
9.014,2042,-31
9.014,2043,-34
9.014,2044,-38
9.014,2045,-42
9.034,2046,-50
9.034,2047,-60
9.034,2048,-73
9.034,2049,-79
9.052,2050,-70
9.053,2051,-35
9.053,2052,18
9.053,2053,84
9.073,2054,152
9.073,2055,211
9.073,2056,249
9.073,2057,257
9.092,2058,239
9.092,2059,195
9.092,2060,141
9.092,2061,83
9.092,2062,22
9.110,2063,-38
9.110,2064,-89
9.110,2065,-124
9.134,2066,-141
9.134,2067,-146
9.134,2068,-143
9.134,2069,-138
9.163,2070,-131
9.163,2071,-123
9.163,2072,-117
9.181,2073,-111
9.181,2074,-107
9.181,2075,-100
9.199,2076,-95
9.199,2077,-86
9.199,2078,-81
9.199,2079,-75
9.220,2080,-69
9.220,2081,-65
9.220,2082,-62
9.220,2083,-61
9.240,2084,-60
9.240,2085,-59
9.240,2086,-58
9.240,2087,-56
9.259,2088,-54
9.259,2089,-52
9.259,2090,-50
9.260,2091,-47
9.281,2092,-44
9.281,2093,-42
9.281,2094,-39
9.281,2095,-35
9.300,2096,-33
9.300,2097,-31
9.300,2098,-28
9.300,2099,-26
9.321,2100,-22
9.321,2101,-19
9.321,2102,-16
9.321,2103,-12
9.321,2104,-9
9.341,2105,-8
9.341,2106,-9
9.341,2107,-10
9.341,2108,-11
9.362,2109,-13
9.362,2110,-15
9.362,2111,-15
9.362,2112,-16
9.394,2113,-15
9.394,2114,-17
9.394,2115,-20
9.394,2116,-22
9.420,2117,-23
9.420,2118,-23
9.420,2119,-23
9.420,2120,-24
9.430,2121,-26
9.430,2122,-28
9.430,2123,-29
9.430,2124,-30
9.450,2125,-29
9.450,2126,-28
9.450,2127,-27
9.450,2128,-27
9.472,2129,-28
9.472,2130,-26
9.472,2131,-23
9.472,2132,-19
9.490,2133,-18
9.490,2134,-19
9.490,2135,-22
9.490,2136,-25
9.510,2137,-25
9.510,2138,-22
9.510,2139,-19
9.510,2140,-16
9.540,2141,-14
9.540,2142,-15
9.540,2143,-15
9.540,2144,-16
9.551,2145,-16
9.551,2146,-14
9.551,2147,-10
9.551,2148,-9
9.570,2149,-9
9.570,2150,-10
9.570,2151,-10
9.570,2152,-9
9.570,2153,-7
9.592,2154,-3
9.592,2155,0
9.592,2156,7
9.592,2157,13
9.592,2158,23
9.619,2159,28
9.619,2160,34
9.619,2161,38
9.619,2162,42
9.619,2163,51
9.640,2164,60
9.640,2165,71
9.640,2166,78
9.640,2167,82
9.640,2168,87
9.661,2169,87
9.661,2170,88
9.662,2171,86
9.662,2172,81
9.662,2173,76
9.680,2174,68
9.680,2175,60
9.680,2176,49
9.680,2177,39
9.680,2178,32
9.702,2179,25
9.702,2180,21
9.702,2181,15
9.702,2182,8
9.702,2183,4
9.702,2184,0
9.721,2185,-1
9.721,2186,-3
9.721,2187,-5
9.721,2188,-7
9.721,2189,-8
9.740,2190,-6
9.740,2191,-9
9.740,2192,-13
9.740,2193,-23
9.760,2194,-33
9.760,2195,-37
9.760,2196,-33
9.760,2197,-9
9.760,2198,33
9.781,2199,88
9.781,2200,153
9.781,2201,212
9.781,2202,249
9.804,2203,260
9.804,2204,253
9.804,2205,216
9.804,2206,169
9.832,2207,110
9.832,2208,47
9.832,2209,-7
9.832,2210,-41
9.855,2211,-56
9.855,2212,-56
9.855,2213,-49
9.855,2214,-45
9.870,2215,-42
9.870,2216,-40
9.870,2217,-37
9.870,2218,-30
9.890,2219,-24
9.890,2220,-19
9.891,2221,-14
9.891,2222,-10
9.891,2223,-6
9.913,2224,-2
9.913,2225,1
9.913,2226,4
9.913,2227,8
9.913,2228,12
9.932,2229,16
9.932,2230,20
9.932,2231,23
9.932,2232,25
9.932,2233,27
9.950,2234,29
9.950,2235,31
9.950,2236,34
9.950,2237,36
9.950,2238,39
9.971,2239,41
9.971,2240,43
9.974,2241,45
9.974,2242,48
9.974,2243,51
9.992,2244,54
9.992,2245,56
9.992,2246,58
9.992,2247,59
9.992,2248,60
10.010,2249,60
10.010,2250,61
10.010,2251,62
10.010,2252,65
10.010,2253,65
10.034,2254,68
10.034,2255,69
10.034,2256,70
10.034,2257,74
10.034,2258,76
10.063,2259,80
10.063,2260,81
10.063,2261,81
10.063,2262,83
10.063,2263,82
10.081,2264,84
10.081,2265,83
10.081,2266,82
10.081,2267,81
10.081,2268,80
10.106,2269,80
10.106,2270,80
10.106,2271,81
10.106,2272,80
10.106,2273,78
10.123,2274,77
10.123,2275,75
10.123,2276,75
10.123,2277,74
10.123,2278,74
10.140,2279,73
10.140,2280,73
10.140,2281,74
10.140,2282,74
10.140,2283,77
10.160,2284,77
10.160,2285,80
10.160,2286,79
10.160,2287,78
10.160,2288,77
10.180,2289,75
10.180,2290,75
10.180,2291,73
10.180,2292,71
10.180,2293,73
10.202,2294,72
10.202,2295,73
10.202,2296,72
10.202,2297,71
10.202,2298,70
10.219,2299,70
10.219,2300,70
10.219,2301,69
10.219,2302,67
10.219,2303,66
10.240,2304,65
10.240,2305,64
10.240,2306,63
10.240,2307,61
10.240,2308,60
10.262,2309,59
10.262,2310,59
10.262,2311,58
10.262,2312,58
10.262,2313,56
10.290,2314,58
10.290,2315,57
10.290,2316,59
10.290,2317,58
10.290,2318,56
10.313,2319,57
10.313,2320,56
10.313,2321,57
10.313,2322,56
10.313,2323,55
10.334,2324,57
10.334,2325,55
10.334,2326,55
10.334,2327,52
10.334,2328,50
10.350,2329,49
10.350,2330,48
10.350,2331,46
10.350,2332,44
10.350,2333,42
10.370,2334,42
10.370,2335,43
10.370,2336,44
10.370,2337,46
10.370,2338,48
10.395,2339,49
10.395,2340,50
10.395,2341,52
10.395,2342,55
10.395,2343,60
10.409,2344,66
10.409,2345,75
10.409,2346,80
10.409,2347,87
10.409,2348,89
10.433,2349,91
10.433,2350,94
10.433,2351,93
10.433,2352,92
10.433,2353,86
10.453,2354,77
10.453,2355,71
10.453,2356,60
10.453,2357,52
10.453,2358,41
10.469,2359,30
10.469,2360,21
10.469,2361,13
10.469,2362,7
10.469,2363,1
10.469,2364,-4
10.490,2365,-9
10.490,2366,-13
10.490,2367,-17
10.490,2368,-21
10.519,2369,-24
10.519,2370,-27
10.519,2371,-31
10.519,2372,-37
10.539,2373,-39
10.539,2374,-32
10.539,2375,-2
10.539,2376,43
10.560,2377,102
10.560,2378,163
10.560,2379,216
10.560,2380,262
10.582,2381,294
10.582,2382,295
10.582,2383,262
10.582,2384,194
10.599,2385,106
10.599,2386,19
10.599,2387,-29
10.599,2388,-69
10.599,2389,-76
10.620,2390,-82
10.620,2391,-88
10.620,2392,-92
10.620,2393,-93
10.644,2394,-93
10.644,2395,-92
10.644,2396,-91
10.644,2397,-91
10.659,2398,-89
10.659,2399,-90
10.659,2400,-87
10.659,2401,-86
10.681,2402,-84
10.681,2403,-83
10.681,2404,-81
10.681,2405,-80
10.704,2406,-79
10.704,2407,-76
10.704,2408,-73
10.704,2409,-72
10.732,2410,-71
10.732,2411,-70
10.732,2412,-68
10.732,2413,-66
10.750,2414,-64
10.750,2415,-61
10.750,2416,-58
10.750,2417,-54
10.769,2418,-51
10.769,2419,-49
10.769,2420,-47
10.769,2421,-46
10.790,2422,-43
10.790,2423,-41
10.790,2424,-39
10.790,2425,-37
10.810,2426,-36
10.810,2427,-35
10.810,2428,-34
10.810,2429,-33
10.829,2430,-34
10.829,2431,-34
10.829,2432,-34
10.829,2433,-35
10.850,2434,-35
10.850,2435,-35
10.850,2436,-36
10.850,2437,-38
10.870,2438,-40
10.870,2439,-42
10.870,2440,-45
10.870,2441,-47
10.889,2442,-50
10.889,2443,-52
10.889,2444,-54
10.889,2445,-56
10.910,2446,-58
10.910,2447,-58
10.910,2448,-58
10.910,2449,-58
10.931,2450,-59
10.931,2451,-56
10.931,2452,-56
10.931,2453,-52
10.959,2454,-51
10.959,2455,-51
10.959,2456,-48
10.959,2457,-48
10.980,2458,-45
10.980,2459,-45
10.980,2460,-44
10.980,2461,-42
11.001,2462,-41
11.001,2463,-39
11.001,2464,-37
11.001,2465,-36
11.019,2466,-34
11.019,2467,-34
11.019,2468,-35
11.019,2469,-37
11.039,2470,-37
11.039,2471,-37
11.039,2472,-37
11.040,2473,-36
11.065,2474,-37
11.065,2475,-37
11.065,2476,-37
11.065,2477,-36
11.079,2478,-35
11.079,2479,-34
11.079,2480,-34
11.079,2481,-33
11.104,2482,-33
11.104,2483,-32
11.104,2484,-32
11.104,2485,-31
11.120,2486,-32
11.120,2487,-32
11.120,2488,-32
11.120,2489,-32
11.141,2490,-32
11.141,2491,-31
11.141,2492,-30
11.141,2493,-28
11.160,2494,-28
11.160,2495,-27
11.160,2496,-28
11.160,2497,-29
11.192,2498,-26
11.193,2499,-24
11.193,2500,-19
11.193,2501,-16
11.217,2502,-13
11.217,2503,-7
11.217,2504,0
11.217,2505,11
11.217,2506,21
11.234,2507,29
11.234,2508,35
11.234,2509,37
11.234,2510,39
11.234,2511,39
11.254,2512,38
11.254,2513,37
11.254,2514,31
11.254,2515,26
11.254,2516,19
11.272,2517,11
11.272,2518,3
11.272,2519,-3
11.272,2520,-9
11.272,2521,-14
11.291,2522,-19
11.291,2523,-24
11.291,2524,-29
11.291,2525,-34
11.315,2526,-38
11.315,2527,-41
11.315,2528,-43
11.315,2529,-46
11.329,2530,-49
11.329,2531,-51
11.329,2532,-55
11.329,2533,-49
11.350,2534,-28
11.350,2535,16
11.350,2536,73
11.350,2537,140
11.371,2538,198
11.371,2539,249
11.371,2540,291
11.374,2541,299
11.389,2542,276
11.389,2543,215
11.389,2544,131
11.389,2545,51
11.423,2546,-15
11.423,2547,-56
11.423,2548,-79
11.423,2549,-87
11.442,2550,-90
11.442,2551,-90
11.442,2552,-90
11.442,2553,-91
11.462,2554,-89
11.462,2555,-88
11.462,2556,-88
11.462,2557,-86
11.480,2558,-84
11.480,2559,-80
11.480,2560,-76
11.480,2561,-72
11.504,2562,-70
11.504,2563,-68
11.504,2564,-65
11.504,2565,-63
11.519,2566,-61
11.519,2567,-59
11.519,2568,-58
11.519,2569,-55
11.540,2570,-52
11.540,2571,-48
11.540,2572,-44
11.540,2573,-40
11.561,2574,-37
11.561,2575,-33
11.561,2576,-30
11.561,2577,-28
11.580,2578,-25
11.580,2579,-22
11.580,2580,-18
11.580,2581,-14
11.602,2582,-12
11.602,2583,-9
11.602,2584,-6
11.603,2585,-4
11.603,2586,0
11.603,2587,1
11.630,2588,1
11.630,2589,2
11.630,2590,2
11.630,2591,3
11.630,2592,3
11.630,2593,2
11.650,2594,2
11.650,2595,0
11.650,2596,-2
11.650,2597,-5
11.650,2598,-7
11.650,2599,-9
11.682,2600,-12
11.682,2601,-14
11.682,2602,-15
11.682,2603,-17
11.693,2604,-17
11.693,2605,-19
11.693,2606,-21
11.693,2607,-23
11.712,2608,-25
11.712,2609,-26
11.712,2610,-27
11.712,2611,-27
11.735,2612,-28
11.735,2613,-29
11.735,2614,-27
11.735,2615,-26
11.750,2616,-24
11.750,2617,-24
11.750,2618,-24
11.750,2619,-23
11.770,2620,-23
11.770,2621,-22
11.770,2622,-21
11.770,2623,-20
11.793,2624,-19
11.793,2625,-17
11.793,2626,-15
11.793,2627,-13
11.810,2628,-11
11.810,2629,-9
11.810,2630,-8
11.810,2631,-8
11.831,2632,-8
11.831,2633,-7
11.831,2634,-6
11.831,2635,-5
11.831,2636,-3
11.860,2637,-2
11.860,2638,-3
11.860,2639,-3
11.860,2640,-4
11.860,2641,-5
11.880,2642,-5
11.880,2643,-6
11.880,2644,-5
11.880,2645,-5
11.880,2646,-4
11.900,2647,-3
11.900,2648,-3
11.900,2649,-3
11.900,2650,-5
11.900,2651,-6
11.919,2652,-7
11.919,2653,-7
11.919,2654,-8
11.919,2655,-9
11.919,2656,-10
11.939,2657,-12
11.940,2658,-13
11.940,2659,-14
11.940,2660,-14
11.960,2661,-14
11.961,2662,-13
11.961,2663,-12
11.961,2664,-12
11.980,2665,-11
11.980,2666,-11
11.980,2667,-11
11.980,2668,-11
12.000,2669,-12
12.000,2670,-13
12.000,2671,-15
12.000,2672,-15
12.020,2673,-14
12.020,2674,-13
12.020,2675,-12
12.020,2676,-12
12.052,2677,-12
12.052,2678,-11
12.052,2679,-11
12.052,2680,-11
12.059,2681,-11
12.060,2682,-11
12.060,2683,-10
12.060,2684,-9
12.093,2685,-7
12.093,2686,-5
12.093,2687,-5
12.093,2688,-6
12.093,2689,-6
12.112,2690,-6
12.112,2691,-4
12.112,2692,-2
12.112,2693,0
12.112,2694,2
12.112,2695,4
12.130,2696,5
12.130,2697,6
12.130,2698,6
12.130,2699,8
12.130,2700,12
12.131,2701,19
12.155,2702,27
12.155,2703,34
12.155,2704,40
12.155,2705,43
12.155,2706,46
12.170,2707,48
12.170,2708,47
12.170,2709,45
12.170,2710,41
12.170,2711,36
12.189,2712,31
12.189,2713,24
12.189,2714,17
12.189,2715,9
12.189,2716,2
12.189,2717,-2
12.215,2718,-7
12.215,2719,-12
12.215,2720,-17
12.215,2721,-21
12.233,2722,-24
12.233,2723,-28
12.233,2724,-30
12.233,2725,-33
12.250,2726,-35
12.250,2727,-35
12.250,2728,-36
12.250,2729,-38
12.274,2730,-42
12.275,2731,-49
12.275,2732,-47
12.275,2733,-32
12.289,2734,10
12.289,2735,65
12.289,2736,134
12.289,2737,194
12.322,2738,246
12.322,2739,285
12.322,2740,292
12.322,2741,267
12.346,2742,206
12.346,2743,124
12.346,2744,71
12.346,2745,19
12.347,2746,3
12.363,2747,-11
12.363,2748,-25
12.363,2749,-36
12.363,2750,-43
12.384,2751,-48
12.384,2752,-51
12.384,2753,-55
12.384,2754,-58
12.404,2755,-61
12.404,2756,-63
12.404,2757,-63
12.404,2758,-63
12.420,2759,-62
12.420,2760,-62
12.420,2761,-61
12.420,2762,-60
12.444,2763,-58
12.445,2764,-55
12.445,2765,-54
12.445,2766,-52
12.461,2767,-51
12.461,2768,-50
12.461,2769,-48
12.461,2770,-45
12.482,2771,-41
12.482,2772,-37
12.482,2773,-33
12.482,2774,-30
12.500,2775,-27
12.500,2776,-24
12.500,2777,-22
12.500,2778,-19
12.529,2779,-16
12.529,2780,-13
12.529,2781,-10
12.529,2782,-8
12.552,2783,-5
12.552,2784,-3
12.552,2785,-3
12.552,2786,-2
12.552,2787,-1
12.552,2788,0
12.570,2789,0
12.570,2790,0
12.570,2791,1
12.570,2792,2
12.570,2793,2
12.570,2794,3
12.590,2795,2
12.590,2796,0
12.590,2797,0
12.590,2798,-3
12.590,2799,-5
12.590,2800,-7
12.610,2801,-10
12.610,2802,-11
12.610,2803,-13
12.610,2804,-14
12.635,2805,-15
12.635,2806,-17
12.635,2807,-18
12.635,2808,-19
12.649,2809,-19
12.649,2810,-20
12.649,2811,-21
12.649,2812,-22
12.681,2813,-22
12.682,2814,-21
12.682,2815,-21
12.682,2816,-20
12.692,2817,-19
12.692,2818,-17
12.692,2819,-15
12.693,2820,-15
12.710,2821,-13
12.710,2822,-12
12.710,2823,-10
12.710,2824,-8
12.729,2825,-7
12.729,2826,-5
12.729,2827,-3
12.729,2828,-2
12.729,2829,0
12.729,2830,0
12.764,2831,0
12.764,2832,1
12.764,2833,2
12.764,2834,2
12.764,2835,3
12.764,2836,3
12.790,2837,3
12.790,2838,3
12.790,2839,3
12.790,2840,2
12.790,2841,1
12.790,2842,1
12.790,2843,2
12.800,2844,3
12.800,2845,3
12.800,2846,3
12.800,2847,2
12.800,2848,2
12.800,2849,1
12.800,2850,0
12.825,2851,0
12.825,2852,0
12.825,2853,1
12.825,2854,2
12.825,2855,2
12.825,2856,2
12.839,2857,2
12.839,2858,2
12.839,2859,1
12.839,2860,1
12.839,2861,0
12.839,2862,0
12.839,2863,1
12.872,2864,1
12.872,2865,2
12.872,2866,3
12.872,2867,4
12.872,2868,4
12.872,2869,3
12.872,2870,2
12.889,2871,2
12.889,2872,2
12.889,2873,3
12.889,2874,4
12.889,2875,3
12.889,2876,2
12.920,2877,1
12.920,2878,0
12.920,2879,1
12.920,2880,1
12.920,2881,2
12.920,2882,2
12.920,2883,2
12.949,2884,1
12.949,2885,1
12.949,2886,1
12.949,2887,0
12.949,2888,1
12.949,2889,0
12.949,2890,0
12.969,2891,0
12.969,2892,0
12.969,2893,0
12.969,2894,0
12.969,2895,0
12.969,2896,-1
13.000,2897,0
13.000,2898,0
13.000,2899,0
13.000,2900,0
13.001,2901,0
13.001,2902,0
13.001,2903,0
13.024,2904,-1
13.024,2905,-1
13.025,2906,-1
13.025,2907,0
13.025,2908,0
13.050,2909,0
13.050,2910,1
13.050,2911,4
13.050,2912,6
13.050,2913,9
13.050,2914,11
13.069,2915,13
13.069,2916,18
13.069,2917,24
13.069,2918,31
13.069,2919,37
13.092,2920,43
13.092,2921,48
13.092,2922,52
13.092,2923,55
13.092,2924,55
13.110,2925,53
13.110,2926,50
13.110,2927,45
13.110,2928,40
13.110,2929,33
13.135,2930,25
13.135,2931,17
13.135,2932,9
13.135,2933,2
13.135,2934,-3
13.135,2935,-8
13.150,2936,-13
13.150,2937,-17
13.150,2938,-20
13.150,2939,-24
13.182,2940,-27
13.183,2941,-29
13.183,2942,-30
13.183,2943,-31
13.199,2944,-33
13.200,2945,-36
13.200,2946,-41
13.200,2947,-49
13.220,2948,-59
13.220,2949,-71
13.220,2950,-83
13.220,2951,-88
13.243,2952,-77
13.243,2953,-40
13.243,2954,12
13.243,2955,79
13.260,2956,146
13.260,2957,205
13.260,2958,255
13.260,2959,281
13.280,2960,276
13.280,2961,234
13.280,2962,162
13.280,2963,77
13.280,2964,-3
13.305,2965,-69
13.305,2966,-114
13.305,2967,-137
13.320,2968,-143
13.320,2969,-142
13.320,2970,-135
13.344,2971,-129
13.344,2972,-123
13.344,2973,-116
13.344,2974,-111
13.365,2975,-106
13.365,2976,-102
13.365,2977,-98
13.382,2978,-96
13.382,2979,-93
13.382,2980,-88
13.382,2981,-83
13.411,2982,-78
13.411,2983,-73
13.411,2984,-70
13.411,2985,-64
13.430,2986,-60
13.430,2987,-53
13.430,2988,-49
13.430,2989,-46
13.450,2990,-42
13.450,2991,-40
13.450,2992,-37
13.450,2993,-34
13.475,2994,-32
13.475,2995,-29
13.475,2996,-26
13.475,2997,-24
13.492,2998,-22
13.492,2999,-19
13.492,3000,-15
13.493,3001,-12
13.493,3002,-9
13.513,3003,-8
13.513,3004,-6
13.513,3005,-5
13.513,3006,-5
13.513,3007,-4
13.530,3008,-3
13.530,3009,-2
13.530,3010,-2
13.530,3011,-3
13.530,3012,-4
13.552,3013,-6
13.552,3014,-8
13.552,3015,-10
13.552,3016,-12
13.573,3017,-14
13.573,3018,-16
13.573,3019,-19
13.573,3020,-22
13.592,3021,-24
13.592,3022,-26
13.592,3023,-27
13.592,3024,-28
13.614,3025,-29
13.614,3026,-31
13.614,3027,-34
13.614,3028,-35
13.644,3029,-35
13.644,3030,-34
13.644,3031,-35
13.644,3032,-35
13.660,3033,-35
13.660,3034,-34
13.660,3035,-32
13.660,3036,-30
13.679,3037,-28
13.679,3038,-26
13.679,3039,-24
13.679,3040,-21
13.700,3041,-18
13.700,3042,-16
13.700,3043,-14
13.700,3044,-13
13.720,3045,-12
13.720,3046,-12
13.720,3047,-11
13.720,3048,-11
13.740,3049,-10
13.740,3050,-8
13.740,3051,-8
13.740,3052,-6
13.740,3053,-6
13.760,3054,-6
13.760,3055,-5
13.760,3056,-6
13.760,3057,-7
13.760,3058,-8
13.780,3059,-9
13.780,3060,-8
13.780,3061,-9
13.780,3062,-8
13.780,3063,-7
13.800,3064,-7
13.800,3065,-7
13.800,3066,-9
13.800,3067,-12
13.820,3068,-13
13.820,3069,-13
13.820,3070,-13
13.820,3071,-13
13.840,3072,-14
13.840,3073,-14
13.840,3074,-16
13.840,3075,-16
13.872,3076,-16
13.872,3077,-17
13.872,3078,-16
13.872,3079,-17
13.890,3080,-17
13.890,3081,-17
13.890,3082,-16
13.890,3083,-13
13.911,3084,-12
13.911,3085,-12
13.911,3086,-13
13.911,3087,-13
13.931,3088,-12
13.931,3089,-12
13.931,3090,-11
13.932,3091,-11
13.952,3092,-11
13.952,3093,-11
13.952,3094,-9
13.952,3095,-6
13.952,3096,-3
13.972,3097,0
13.972,3098,2
13.972,3099,6
13.972,3100,10
13.972,3101,16
13.972,3102,22
13.990,3103,27
13.990,3104,31
13.990,3105,34
13.990,3106,38
13.990,3107,43
14.009,3108,48
14.009,3109,51
14.009,3110,50
14.010,3111,45
14.010,3112,39
14.030,3113,32
14.030,3114,23
14.030,3115,15
14.030,3116,6
14.030,3117,0
14.049,3118,-6
14.049,3119,-11
14.049,3120,-14
14.049,3121,-18
14.069,3122,-20
14.069,3123,-22
14.069,3124,-26
14.069,3125,-30
14.105,3126,-34
14.105,3127,-35
14.105,3128,-36
14.105,3129,-38
14.121,3130,-42
14.121,3131,-51
14.121,3132,-62
14.121,3133,-25
14.121,3134,6
14.140,3135,83
14.140,3136,148
14.140,3137,183
14.140,3138,188
14.163,3139,159
14.163,3140,106
14.163,3141,40
14.163,3142,-27
14.181,3143,-91
14.181,3144,-140
14.181,3145,-166
14.181,3146,-173
14.201,3147,-169
14.201,3148,-163
14.201,3149,-159
14.223,3150,-156
14.223,3151,-153
14.223,3152,-142
14.242,3153,-134
14.242,3154,-124
14.242,3155,-119
14.242,3156,-118
14.260,3157,-120
14.260,3158,-118
14.260,3159,-113
14.284,3160,-107
14.284,3161,-102
14.284,3162,-99
14.312,3163,-101
14.312,3164,-99
14.312,3165,-93
14.312,3166,-84
14.333,3167,-70
14.333,3168,-62
14.333,3169,-55
14.333,3170,-53
14.351,3171,-51
14.351,3172,-51
14.351,3173,-48
14.351,3174,-45
14.370,3175,-44
14.370,3176,-44
14.370,3177,-47
14.370,3178,-44
14.392,3179,-38
14.392,3180,-28
14.392,3181,-20
14.392,3182,-16
14.410,3183,-16
14.410,3184,-15
14.410,3185,-14
14.410,3186,-12
14.429,3187,-10
14.429,3188,-12
14.429,3189,-13
14.429,3190,-17
14.450,3191,-19
14.450,3192,-18
14.450,3193,-19
14.450,3194,-19
14.469,3195,-25
14.469,3196,-30
14.469,3197,-30
14.469,3198,-28
14.490,3199,-22
14.490,3200,-16
14.490,3201,-14
14.490,3202,-13
14.513,3203,-14
14.513,3204,-16
14.513,3205,-18
14.513,3206,-19
14.541,3207,-26
14.541,3208,-25
14.541,3209,-25
14.541,3210,-20
14.559,3211,-14
14.559,3212,-9
14.559,3213,-7
14.559,3214,-4
14.559,3215,-1
14.559,3216,0
14.584,3217,0
14.584,3218,-2
14.584,3219,-2
14.584,3220,0
14.584,3221,0
14.584,3222,0
14.602,3223,0
14.602,3224,4
14.602,3225,8
14.602,3226,15
14.602,3227,18
14.619,3228,12
14.619,3229,1
14.619,3230,-3
14.619,3231,-2
14.619,3232,7
14.619,3233,17
14.644,3234,20
14.644,3235,16
14.644,3236,8
14.644,3237,4
14.644,3238,2
14.644,3239,3
14.664,3240,6
14.664,3241,9
14.664,3242,11
14.664,3243,10
14.664,3244,8
14.664,3245,8
14.682,3246,9
14.682,3247,13
14.682,3248,13
14.682,3249,10
14.682,3250,8
14.682,3251,7
14.704,3252,9
14.704,3253,12
14.704,3254,12
14.704,3255,11
14.704,3256,5
14.720,3257,2
14.720,3258,1
14.720,3259,3
14.720,3260,8
14.720,3261,9
14.720,3262,12
14.751,3263,14
14.751,3264,16
14.751,3265,22
14.751,3266,27
14.751,3267,33
14.772,3268,37
14.772,3269,42
14.772,3270,48
14.772,3271,52
14.772,3272,60
14.793,3273,64
14.793,3274,64
14.793,3275,63
14.793,3276,57
14.793,3277,51
14.813,3278,44
14.813,3279,36
14.813,3280,29
14.813,3281,21
14.813,3282,15
14.813,3283,9
14.832,3284,3
14.832,3285,-1
14.832,3286,-6
14.832,3287,-9
14.832,3288,-12
14.850,3289,-15
14.850,3290,-15
14.850,3291,-18
14.850,3292,-21
14.872,3293,-24
14.872,3294,-26
14.872,3295,-26
14.872,3296,-30
14.889,3297,-37
14.889,3298,-50
14.889,3299,-65
14.889,3300,-72
14.912,3301,-62
14.912,3302,-25
14.912,3303,28
14.912,3304,97
14.931,3305,165
14.931,3306,224
14.931,3307,267
14.931,3308,283
14.951,3309,276
14.951,3310,243
14.951,3311,183
14.951,3312,122
14.980,3313,54
14.980,3314,1
14.980,3315,-32
14.980,3316,-48
14.980,3317,-52
15.005,3318,-52
15.005,3319,-50
15.005,3320,-49
15.005,3321,-48
15.020,3322,-48
15.020,3323,-48
15.020,3324,-50
15.020,3325,-50
15.040,3326,-49
15.040,3327,-47
15.040,3328,-43
15.040,3329,-40
15.060,3330,-37
15.060,3331,-35
15.060,3332,-31
15.060,3333,-29
15.089,3334,-25
15.089,3335,-24
15.089,3336,-22
15.089,3337,-20
15.101,3338,-18
15.101,3339,-15
15.101,3340,-14
15.101,3341,-13
15.123,3342,-11
15.123,3343,-10
15.123,3344,-4
15.123,3345,0
15.123,3346,5
15.142,3347,11
15.142,3348,14
15.142,3349,18
15.142,3350,20
15.142,3351,21
15.160,3352,25
15.160,3353,27
15.160,3354,31
15.160,3355,33
15.160,3356,35
15.184,3357,38
15.184,3358,40
15.184,3359,43
15.184,3360,45
15.184,3361,46
15.209,3362,48
15.209,3363,48
15.209,3364,50
15.210,3365,50
15.210,3366,50
15.232,3367,52
15.232,3368,51
15.232,3369,51
15.232,3370,49
15.233,3371,47
15.250,3372,46
15.250,3373,43
15.250,3374,44
15.250,3375,43
15.250,3376,42
15.271,3377,43
15.271,3378,41
15.271,3379,41
15.271,3380,40
15.272,3381,41
15.290,3382,43
15.290,3383,43
15.290,3384,44
15.290,3385,43
15.290,3386,42
15.309,3387,43
15.309,3388,43
15.309,3389,44
15.309,3390,43
15.309,3391,43
15.332,3392,45
15.332,3393,46
15.332,3394,48
15.332,3395,48
15.332,3396,47
15.352,3397,48
15.352,3398,47
15.352,3399,48
15.352,3400,49
15.352,3401,51
15.377,3402,54
15.377,3403,54
15.377,3404,55
15.377,3405,53
15.377,3406,52
15.390,3407,53
15.390,3408,51
15.390,3409,51
15.390,3410,49
15.390,3411,48
15.410,3412,48
15.410,3413,47
15.410,3414,49
15.410,3415,49
15.410,3416,49
15.439,3417,48
15.440,3418,47
15.440,3419,47
15.440,3420,46
15.440,3421,46
15.462,3422,46
15.462,3423,45
15.462,3424,46
15.462,3425,46
15.462,3426,47
15.483,3427,49
15.483,3428,50
15.483,3429,53
15.483,3430,54
15.483,3431,56
15.501,3432,60
15.502,3433,61
15.502,3434,64
15.502,3435,66
15.502,3436,69
15.520,3437,76
15.520,3438,82
15.520,3439,90
15.520,3440,95
15.543,3441,100
15.543,3442,106
15.543,3443,110
15.543,3444,114
15.559,3445,114
15.560,3446,112
15.560,3447,106
15.560,3448,99
15.560,3449,91
15.580,3450,83
15.580,3451,77
15.580,3452,70
15.580,3453,64
15.580,3454,57
15.601,3455,50
15.601,3456,44
15.601,3457,39
15.601,3458,35
15.601,3459,30
15.624,3460,27
15.624,3461,24
15.624,3462,20
15.624,3463,16
15.624,3464,12
15.652,3465,3
15.652,3466,-7
15.652,3467,-18
15.652,3468,-24
15.670,3469,-13
15.670,3470,21
15.670,3471,70
15.670,3472,133
15.670,3473,192
15.697,3474,244
15.697,3475,288
15.697,3476,315
15.697,3477,314
15.713,3478,276
15.713,3479,213
15.713,3480,133
15.713,3481,60
15.729,3482,3
15.729,3483,-35
15.729,3484,-54
15.729,3485,-60
15.754,3486,-57
15.755,3487,-53
15.755,3488,-48
15.755,3489,-45
15.770,3490,-39
15.770,3491,-36
15.770,3492,-33
15.770,3493,-29
15.789,3494,-27
15.789,3495,-23
15.789,3496,-22
15.789,3497,-20
15.813,3498,-18
15.813,3499,-17
15.813,3500,-15
15.813,3501,-15
15.829,3502,-13
15.829,3503,-12
15.829,3504,-11
15.829,3505,-10
15.829,3506,-8
15.849,3507,-7
15.849,3508,-6
15.849,3509,-5
15.849,3510,-4
15.849,3511,-3
15.879,3512,-2
15.879,3513,0
15.879,3514,0
15.879,3515,1
15.879,3516,3
15.879,3517,3
15.902,3518,4
15.902,3519,5
15.902,3520,6
15.902,3521,6
15.902,3522,7
15.902,3523,8
15.930,3524,10
15.930,3525,10
15.930,3526,11
15.930,3527,11
15.930,3528,12
15.940,3529,12
15.940,3530,12
15.940,3531,12
15.940,3532,12
15.940,3533,11
15.963,3534,11
15.963,3535,11
15.963,3536,10
15.963,3537,9
15.963,3538,8
15.963,3539,7
15.984,3540,6
15.984,3541,5
15.984,3542,3
15.984,3543,1
15.984,3544,-1
15.984,3545,-3
16.000,3546,-4
16.000,3547,-6
16.000,3548,-7
16.000,3549,-9
16.000,3550,-10
16.032,3551,-12
16.032,3552,-14
16.032,3553,-14
16.032,3554,-15
16.040,3555,-15
16.040,3556,-15
16.040,3557,-16
16.040,3558,-16
16.060,3559,-16
16.060,3560,-15
16.060,3561,-15
16.060,3562,-14
16.081,3563,-12
16.081,3564,-11
16.081,3565,-9
16.081,3566,-6
16.112,3567,-4
16.112,3568,-2
16.112,3569,-2
16.112,3570,-2
16.112,3571,-2
16.133,3572,-2
16.133,3573,-2
16.133,3574,-2
16.133,3575,-3
16.133,3576,-3
16.149,3577,-3
16.149,3578,-3
16.149,3579,-5
16.149,3580,-6
16.149,3581,-6
16.173,3582,-7
16.173,3583,-7
16.173,3584,-8
16.173,3585,-9
16.173,3586,-9
16.192,3587,-10
16.192,3588,-10
16.192,3589,-11
16.192,3590,-13
16.210,3591,-14
16.210,3592,-16
16.210,3593,-16
16.210,3594,-17
16.240,3595,-19
16.240,3596,-20
16.240,3597,-21
16.240,3598,-22
16.249,3599,-22
16.249,3600,-23
16.249,3601,-23
16.250,3602,-23
16.269,3603,-24
16.269,3604,-23
16.269,3605,-21
16.269,3606,-18
16.292,3607,-15
16.292,3608,-12
16.292,3609,-9
16.292,3610,-5
16.292,3611,-2
16.311,3612,2
16.311,3613,8
16.311,3614,15
16.311,3615,22
16.311,3616,28
16.340,3617,32
16.340,3618,34
16.340,3619,34
16.340,3620,32
16.340,3621,28
16.362,3622,22
16.362,3623,15
16.362,3624,7
16.362,3625,0
16.362,3626,-8
16.362,3627,-15
16.383,3628,-21
16.383,3629,-26
16.383,3630,-31
16.383,3631,-34
16.399,3632,-37
16.399,3633,-40
16.399,3634,-43
16.399,3635,-45
16.432,3636,-47
16.432,3637,-49
16.432,3638,-49
16.432,3639,-51
16.440,3640,-59
16.440,3641,-68
16.440,3642,-80
16.440,3643,-86
16.459,3644,-76
16.459,3645,-39
16.459,3646,8
16.459,3647,54
16.480,3648,67
16.480,3649,41
16.480,3650,-16
16.480,3651,-82
16.500,3652,-138
16.500,3653,-174
16.500,3654,-189
16.500,3655,-187
16.524,3656,-177
16.524,3657,-166
16.524,3658,-156
16.552,3659,-147
16.552,3660,-137
16.552,3661,-128
16.573,3662,-118
16.573,3663,-111
16.573,3664,-103
16.573,3665,-97
16.590,3666,-90
16.590,3667,-84
16.590,3668,-77
16.590,3669,-70
16.610,3670,-63
16.610,3671,-57
16.610,3672,-50
16.610,3673,-45
16.630,3674,-39
16.630,3675,-34
16.630,3676,-29
16.630,3677,-25
16.649,3678,-21
16.649,3679,-18
16.649,3680,-14
16.649,3681,-11
16.670,3682,-8
16.670,3683,-6
16.670,3684,-3
16.670,3685,0
16.670,3686,2
16.670,3687,6
16.693,3688,7
16.693,3689,10
16.693,3690,11
16.693,3691,13
16.693,3692,16
16.713,3693,17
16.713,3694,19
16.713,3695,20
16.713,3696,21
16.713,3697,23
16.729,3698,23
16.729,3699,23
16.729,3700,22
16.729,3701,21
16.729,3702,21
16.755,3703,20
16.755,3704,19
16.755,3705,17
16.755,3706,15
16.755,3707,13
16.782,3708,10
16.782,3709,9
16.782,3710,5
16.782,3711,3
16.782,3712,1
16.782,3713,0
16.800,3714,-1
16.800,3715,-4
16.800,3716,-7
16.800,3717,-8
16.800,3718,-9
16.819,3719,-9
16.819,3720,-9
16.819,3721,-10
16.819,3722,-9
16.819,3723,-9
16.843,3724,-8
16.843,3725,-8
16.843,3726,-8
16.843,3727,-7
16.843,3728,-7
16.861,3729,-7
16.861,3730,-7
16.861,3731,-7
16.861,3732,-5
16.861,3733,-5
16.880,3734,-4
16.880,3735,-3
16.880,3736,-3
16.880,3737,-1
16.880,3738,-2
16.904,3739,-1
16.904,3740,-2
16.904,3741,-2
16.904,3742,-1
16.904,3743,-1
16.920,3744,0
16.920,3745,1
16.920,3746,1
16.920,3747,1
16.920,3748,0
16.920,3749,-1
16.942,3750,-2
16.942,3751,-3
16.942,3752,-3
16.942,3753,-4
16.942,3754,-4
16.961,3755,-6
16.961,3756,-8
16.961,3757,-8
16.961,3758,-11
16.961,3759,-11
16.981,3760,-12
16.981,3761,-13
16.981,3762,-12
16.981,3763,-13
17.010,3764,-12
17.010,3765,-13
17.010,3766,-14
17.010,3767,-15
17.030,3768,-16
17.030,3769,-17
17.030,3770,-18
17.030,3771,-17
17.055,3772,-16
17.055,3773,-15
17.055,3774,-13
17.055,3775,-14
17.074,3776,-13
17.074,3777,-14
17.074,3778,-15
17.074,3779,-16
17.090,3780,-17
17.090,3781,-17
17.090,3782,-18
17.090,3783,-18
17.114,3784,-18
17.114,3785,-18
17.114,3786,-16
17.114,3787,-14
17.132,3788,-11
17.132,3789,-9
17.132,3790,-7
17.132,3791,-1
17.132,3792,3
17.152,3793,11
17.152,3794,17
17.152,3795,21
17.152,3796,24
17.152,3797,26
17.175,3798,26
17.175,3799,23
17.175,3800,18
17.175,3801,13
17.175,3802,6
17.189,3803,0
17.189,3804,-6
17.189,3805,-14
17.189,3806,-21
17.189,3807,-28
17.210,3808,-34
17.210,3809,-38
17.210,3810,-41
17.210,3811,-43
17.239,3812,-45
17.239,3813,-48
17.239,3814,-50
17.239,3815,-52
17.264,3816,-54
17.264,3817,-56
17.264,3818,-60
17.264,3819,-67
17.279,3820,-70
17.279,3821,-62
17.279,3822,-29
17.280,3823,21
17.299,3824,87
17.299,3825,154
17.300,3826,212
17.300,3827,263
17.319,3828,295
17.319,3829,292
17.319,3830,252
17.319,3831,176
17.341,3832,85
17.341,3833,27
17.341,3834,-24
17.341,3835,-37
17.361,3836,-50
17.361,3837,-60
17.361,3838,-68
17.361,3839,-74
17.389,3840,-79
17.389,3841,-82
17.389,3842,-85
17.389,3843,-87
17.400,3844,-88
17.400,3845,-89
17.400,3846,-88
17.400,3847,-87
17.421,3848,-85
17.421,3849,-83
17.421,3850,-82
17.421,3851,-79
17.450,3852,-78
17.450,3853,-76
17.450,3854,-75
17.450,3855,-72
17.474,3856,-69
17.474,3857,-66
17.474,3858,-64
17.474,3859,-62
17.489,3860,-61
17.490,3861,-58
17.490,3862,-56
17.490,3863,-53
17.512,3864,-50
17.512,3865,-47
17.512,3866,-43
17.512,3867,-40
17.533,3868,-38
17.534,3869,-36
17.534,3870,-35
17.534,3871,-34
17.550,3872,-32
17.550,3873,-30
17.550,3874,-28
17.550,3875,-25
17.570,3876,-24
17.570,3877,-22
17.570,3878,-20
17.570,3879,-20
17.593,3880,-20
17.594,3881,-21
17.594,3882,-21
17.594,3883,-20
17.617,3884,-21
17.617,3885,-21
17.617,3886,-23
17.617,3887,-25
17.634,3888,-27
17.634,3889,-29
17.635,3890,-32
17.635,3891,-34
17.654,3892,-36
17.654,3893,-39
17.654,3894,-42
17.654,3895,-45
17.682,3896,-47
17.682,3897,-49
17.682,3898,-47
17.682,3899,-44
17.700,3900,-40
17.700,3901,-35
17.700,3902,-32
17.700,3903,-29
17.721,3904,-25
17.721,3905,-22
17.721,3906,-19
17.721,3907,-15
17.742,3908,-13
17.742,3909,-11
17.742,3910,-7
17.742,3911,-5
17.742,3912,-2
17.761,3913,-1
17.761,3914,0
17.761,3915,0
17.761,3916,0
17.761,3917,0
17.761,3918,0
17.761,3919,0
17.785,3920,1
17.785,3921,1
17.785,3922,0
17.785,3923,0
17.785,3924,-1
17.785,3925,-1
17.800,3926,-2
17.800,3927,-2
17.800,3928,-3
17.800,3929,-3
17.800,3930,-3
17.823,3931,-4
17.823,3932,-3
17.823,3933,-2
17.823,3934,-2
17.823,3935,-2
17.842,3936,-4
17.842,3937,-4
17.842,3938,-5
17.842,3939,-5
17.842,3940,-4
17.865,3941,-5
17.865,3942,-5
17.865,3943,-5
17.865,3944,-5
17.865,3945,-5
17.881,3946,-5
17.881,3947,-5
17.881,3948,-5
17.881,3949,-4
17.881,3950,-2
17.909,3951,-2
17.909,3952,-1
17.909,3953,0
17.909,3954,0
17.909,3955,2
17.909,3956,5
17.932,3957,8
17.932,3958,11
17.932,3959,14
17.932,3960,19
17.932,3961,23
17.953,3962,30
17.953,3963,38
17.953,3964,46
17.953,3965,54
17.953,3966,60
17.969,3967,65
17.969,3968,68
17.969,3969,68
17.969,3970,68
17.969,3971,65
17.993,3972,61
17.993,3973,55
17.993,3974,48
17.993,3975,41
17.993,3976,33
18.012,3977,26
18.012,3978,19
18.012,3979,14
18.012,3980,10
18.012,3981,5
18.029,3982,1
18.029,3983,-1
18.029,3984,-4
18.029,3985,-6
18.029,3986,-8
18.049,3987,-10
18.049,3988,-12
18.050,3989,-14
18.050,3990,-15
18.072,3991,-18
18.072,3992,-24
18.072,3993,-35
18.072,3994,-49
18.089,3995,-60
18.089,3996,-62
18.089,3997,-42
18.089,3998,3
18.089,3999,61
18.110,4000,131
18.110,4001,193
18.110,4002,248
18.110,4003,288
18.142,4004,301
18.142,4005,288
18.142,4006,242
18.142,4007,183
18.160,4008,128
18.160,4009,86
18.160,4010,60
18.160,4011,43
18.160,4012,30
18.180,4013,17
18.180,4014,5
18.180,4015,-5
18.180,4016,-12
18.205,4017,-17
18.205,4018,-20
18.205,4019,-23
18.205,4020,-26
18.220,4021,-27
18.220,4022,-28
18.220,4023,-28
18.220,4024,-27
18.240,4025,-26
18.240,4026,-26
18.240,4027,-26
18.240,4028,-25
18.264,4029,-23
18.264,4030,-21
18.265,4031,-20
18.265,4032,-17
18.280,4033,-16
18.280,4034,-14
18.280,4035,-12
18.280,4036,-9
18.280,4037,-7
18.300,4038,-5
18.300,4039,-4
18.300,4040,-3
18.300,4041,-2
18.300,4042,-1
18.322,4043,-1
18.322,4044,0
18.322,4045,0
18.322,4046,0
18.322,4047,0
18.322,4048,0
18.350,4049,0
18.350,4050,0
18.350,4051,0
18.350,4052,0
18.350,4053,0
18.350,4054,1
18.350,4055,1
18.370,4056,1
18.370,4057,2
18.370,4058,2
18.370,4059,3
18.370,4060,4
18.371,4061,4
18.371,4062,4
18.390,4063,4
18.390,4064,4
18.390,4065,3
18.390,4066,2
18.390,4067,0
18.390,4068,0
18.409,4069,-1
18.410,4070,-1
18.410,4071,-2
18.410,4072,-3
18.410,4073,-5
18.431,4074,-5
18.431,4075,-6
18.431,4076,-6
18.431,4077,-7
18.431,4078,-8
18.450,4079,-7
18.450,4080,-7
18.450,4081,-7
18.450,4082,-6
18.450,4083,-6
18.472,4084,-5
18.472,4085,-4
18.472,4086,-3
18.472,4087,-2
18.472,4088,-2
18.490,4089,-2
18.490,4090,-1
18.490,4091,-1
18.490,4092,-1
18.490,4093,0
18.490,4094,0
18.511,4095,1
18.511,4096,2
18.511,4097,3
18.511,4098,3
18.511,4099,3
18.511,4100,3
18.530,4101,3
18.530,4102,3
18.530,4103,2
18.530,4104,2
18.530,4105,2
18.530,4106,1
18.530,4107,1
18.561,4108,0
18.561,4109,0
18.561,4110,0
18.561,4111,0
18.561,4112,0
18.561,4113,0
18.561,4114,0
18.594,4115,0
18.594,4116,0
18.594,4117,0
18.594,4118,0
18.594,4119,0
18.594,4120,0
18.610,4121,0
18.610,4122,0
18.610,4123,1
18.610,4124,2
18.610,4125,2
18.610,4126,2
18.610,4127,2
18.640,4128,2
18.640,4129,2
18.640,4130,2
18.640,4131,2
18.640,4132,2
18.640,4133,1
18.640,4134,2
18.671,4135,2
18.671,4136,3
18.671,4137,4
18.671,4138,4
18.671,4139,4
18.671,4140,5
18.695,4141,5
18.695,4142,6
18.695,4143,8
18.695,4144,10
18.695,4145,12
18.695,4146,15
18.709,4147,17
18.709,4148,20
18.709,4149,23
18.709,4150,27
18.709,4151,32
18.732,4152,38
18.732,4153,45
18.732,4154,52
18.732,4155,59
18.732,4156,64
18.755,4157,68
18.755,4158,70
18.755,4159,70
18.755,4160,68
18.755,4161,64
18.782,4162,58
18.782,4163,51
18.782,4164,43
18.782,4165,34
18.782,4166,25
18.803,4167,16
18.803,4168,8
18.803,4169,2
18.803,4170,-2
18.803,4171,-7
18.822,4172,-11
18.822,4173,-15
18.822,4174,-19
18.822,4175,-21
18.851,4176,-24
18.851,4177,-25
18.851,4178,-27
18.851,4179,-29
18.860,4180,-31
18.860,4181,-35
18.860,4182,-42
18.860,4183,-54
18.882,4184,-67
18.882,4185,-79
18.882,4186,-79
18.882,4187,-56
18.902,4188,-8
18.902,4189,52
18.902,4190,123
18.902,4191,185
18.902,4192,239
18.922,4193,286
18.922,4194,315
18.922,4195,305
18.922,4196,257
18.941,4197,174
18.941,4198,78
18.941,4199,1
18.941,4200,-49
18.962,4201,-73
18.962,4202,-80
18.962,4203,-82
18.962,4204,-84
18.982,4205,-88
18.982,4206,-91
18.982,4207,-93
18.982,4208,-92
19.014,4209,-91
19.014,4210,-90
19.014,4211,-88
19.014,4212,-86
19.030,4213,-84
19.030,4214,-82
19.030,4215,-79
19.030,4216,-76
19.053,4217,-73
19.053,4218,-70
19.053,4219,-66
19.053,4220,-62
19.070,4221,-58
19.070,4222,-56
19.070,4223,-53
19.070,4224,-51
19.090,4225,-48
19.090,4226,-46
19.090,4227,-44
19.090,4228,-42
19.110,4229,-41
19.110,4230,-40
19.114,4231,-39
19.114,4232,-38
19.130,4233,-36
19.130,4234,-35
19.130,4235,-34
19.130,4236,-33
19.150,4237,-31
19.150,4238,-30
19.150,4239,-30
19.150,4240,-30
19.171,4241,-30
19.171,4242,-30
19.171,4243,-29
19.171,4244,-27
19.190,4245,-25
19.190,4246,-23
19.190,4247,-21
19.190,4248,-20
19.210,4249,-19
19.210,4250,-17
19.210,4251,-16
19.210,4252,-15
19.242,4253,-16
19.242,4254,-16
19.242,4255,-15
19.242,4256,-15
19.260,4257,-15
19.260,4258,-16
19.260,4259,-16
19.260,4260,-15
19.280,4261,-15
19.280,4262,-15
19.280,4263,-15
19.280,4264,-15
19.299,4265,-14
19.299,4266,-12
19.299,4267,-11
19.299,4268,-11
19.322,4269,-10
19.322,4270,-9
19.322,4271,-8
19.322,4272,-7
19.322,4273,-6
19.339,4274,-5
19.339,4275,-5
19.339,4276,-5
19.339,4277,-5
19.339,4278,-4
19.360,4279,-4
19.360,4280,-4
19.360,4281,-4
19.360,4282,-4
19.360,4283,-5
19.380,4284,-5
19.380,4285,-5
19.380,4286,-5
19.380,4287,-5
19.380,4288,-5
19.400,4289,-5
19.400,4290,-5
19.400,4291,-5
19.400,4292,-6
19.400,4293,-6
19.419,4294,-7
19.419,4295,-7
19.419,4296,-8
19.419,4297,-8
19.419,4298,-8
19.450,4299,-8
19.450,4300,-8
19.450,4301,-8
19.450,4302,-8
19.450,4303,-8
19.474,4304,-7
19.474,4305,-7
19.474,4306,-6
19.474,4307,-6
19.474,4308,-6
19.490,4309,-6
19.490,4310,-5
19.490,4311,-5
19.490,4312,-5
19.490,4313,-5
19.512,4314,-5
19.512,4315,-4
19.512,4316,-4
19.512,4317,-4
19.512,4318,-4
19.535,4319,-4
19.535,4320,-3
19.535,4321,-1
19.535,4322,0
19.535,4323,2
19.535,4324,4
19.550,4325,7
19.550,4326,10
19.550,4327,13
19.550,4328,16
19.550,4329,21
19.570,4330,29
19.570,4331,37
19.570,4332,45
19.570,4333,52
19.570,4334,57
19.591,4335,62
19.591,4336,65
19.591,4337,66
19.591,4338,65
19.591,4339,61
19.610,4340,56
19.610,4341,50
19.610,4342,42
19.610,4343,33
19.610,4344,23
19.635,4345,15
19.635,4346,8
19.635,4347,1
19.635,4348,-4
19.635,4349,-9
19.654,4350,-14
19.654,4351,-18
19.654,4352,-22
19.654,4353,-26
19.680,4354,-29
19.680,4355,-31
19.680,4356,-32
19.680,4357,-34
19.706,4358,-37
19.706,4359,-42
19.706,4360,-52
19.706,4361,-67
19.719,4362,-82
19.719,4363,-90
19.719,4364,-51
19.719,4365,-10
19.719,4366,69
19.742,4367,137
19.742,4368,178
19.742,4369,179
19.742,4370,137
19.760,4371,63
19.760,4372,-15
19.761,4373,-75
19.761,4374,-108
19.782,4375,-118
19.782,4376,-118
19.782,4377,-112
19.810,4378,-107
19.810,4379,-102
19.810,4380,-97
19.810,4381,-92
19.820,4382,-88
19.820,4383,-83
19.820,4384,-79
19.820,4385,-76
19.839,4386,-72
19.839,4387,-69
19.839,4388,-65
19.839,4389,-61
19.862,4390,-55
19.862,4391,-50
19.862,4392,-46
19.862,4393,-43
19.882,4394,-41
19.882,4395,-40
19.882,4396,-37
19.882,4397,-35
19.914,4398,-33
19.915,4399,-32
19.915,4400,-30
19.915,4401,-28
19.929,4402,-27
19.930,4403,-25
19.930,4404,-24
19.930,4405,-23
19.955,4406,-22
19.955,4407,-21
19.955,4408,-20
19.955,4409,-19
19.969,4410,-19
19.969,4411,-18
19.969,4412,-18
19.969,4413,-17
19.990,4414,-15
19.990,4415,-14
19.990,4416,-11
19.990,4417,-9
20.014,4418,-6
20.015,4419,-4
20.015,4420,-2
20.015,4421,-1
20.015,4422,0
20.029,4423,0
20.030,4424,0
20.030,4425,0
20.030,4426,0
20.030,4427,0
20.030,4428,1
20.030,4429,1
20.050,4430,2
20.050,4431,2
20.050,4432,2
20.050,4433,3
20.050,4434,3
20.050,4435,4
20.050,4436,4
20.075,4437,4
20.075,4438,5
20.075,4439,5
20.075,4440,5
20.075,4441,6
20.075,4442,7
20.092,4443,8
20.093,4444,9
20.093,4445,10
20.093,4446,10
20.093,4447,10
20.093,4448,11
20.120,4449,12
20.120,4450,12
20.120,4451,12
20.120,4452,12
20.120,4453,13
20.142,4454,14
20.142,4455,15
20.142,4456,15
20.142,4457,14
20.142,4458,14
20.160,4459,15
20.160,4460,15
20.160,4461,16
20.160,4462,15
20.160,4463,15
20.182,4464,15
20.182,4465,14
20.182,4466,13
20.182,4467,13
20.182,4468,12
20.201,4469,12
20.201,4470,12
20.202,4471,12
20.202,4472,11
20.202,4473,11
20.222,4474,10
20.222,4475,10
20.222,4476,10
20.222,4477,9
20.222,4478,9
20.240,4479,8
20.240,4480,8
20.240,4481,8
20.240,4482,8
20.240,4483,8
20.240,4484,8
20.240,4485,9
20.264,4486,9
20.264,4487,9
20.264,4488,9
20.264,4489,9
20.264,4490,9
20.264,4491,9
20.264,4492,9
20.282,4493,9
20.282,4494,8
20.282,4495,8
20.282,4496,8
20.282,4497,7
20.282,4498,7
20.313,4499,7
20.313,4500,7
20.313,4501,8
20.313,4502,8
20.313,4503,10
20.313,4504,12
20.332,4505,15
20.332,4506,17
20.332,4507,20
20.332,4508,24
20.332,4509,27
20.352,4510,32
20.352,4511,38
20.352,4512,46
20.352,4513,54
20.352,4514,62
20.369,4515,69
20.369,4516,73
20.369,4517,76
20.369,4518,78
20.369,4519,77
20.389,4520,74
20.389,4521,68
20.389,4522,61
20.389,4523,54
20.389,4524,45
20.410,4525,36
20.410,4526,27
20.410,4527,18
20.410,4528,11
20.410,4529,5
20.410,4530,0
20.440,4531,-4
20.440,4532,-8
20.440,4533,-12
20.440,4534,-14
20.462,4535,-17
20.462,4536,-19
20.462,4537,-22
20.462,4538,-23
20.479,4539,-24
20.479,4540,-27
20.480,4541,-34
20.480,4542,-47
20.505,4543,-63
20.505,4544,-79
20.505,4545,-84
20.505,4546,-67
20.529,4547,-21
20.529,4548,38
20.529,4549,111
20.529,4550,175
20.540,4551,231
20.540,4552,280
20.540,4553,310
20.540,4554,304
20.562,4555,261
20.562,4556,182
20.562,4557,93
20.562,4558,18
20.562,4559,-30
20.579,4560,-54
20.579,4561,-62
20.579,4562,-63
20.579,4563,-65
20.600,4564,-68
20.600,4565,-72
20.600,4566,-74
20.600,4567,-74
20.619,4568,-73
20.619,4569,-72
20.619,4570,-70
20.620,4571,-67
20.649,4572,-64
20.649,4573,-62
20.649,4574,-59
20.649,4575,-57
20.670,4576,-54
20.670,4577,-51
20.670,4578,-48
20.670,4579,-45
20.694,4580,-43
20.694,4581,-41
20.694,4582,-39
20.694,4583,-37
20.709,4584,-35
20.709,4585,-33
20.709,4586,-31
20.709,4587,-29
20.733,4588,-28
20.733,4589,-27
20.733,4590,-27
20.733,4591,-27
20.750,4592,-27
20.750,4593,-27
20.750,4594,-27
20.750,4595,-27
20.770,4596,-28
20.770,4597,-28
20.770,4598,-28
20.770,4599,-27
20.792,4600,-26
20.793,4601,-26
20.793,4602,-24
20.793,4603,-22
20.811,4604,-19
20.811,4605,-16
20.811,4606,-13
20.811,4607,-10
20.833,4608,-8
20.833,4609,-6
20.833,4610,-4
20.833,4611,-3
20.833,4612,-2
20.855,4613,-1
20.855,4614,0
20.855,4615,0
20.855,4616,0
20.855,4617,0
20.855,4618,2
20.880,4619,3
20.880,4620,3
20.880,4621,3
20.880,4622,3
20.880,4623,3
20.880,4624,3
20.880,4625,3
20.902,4626,3
20.902,4627,3
20.902,4628,4
20.902,4629,4
20.902,4630,5
20.902,4631,4
20.921,4632,5
20.921,4633,6
20.921,4634,7
20.921,4635,7
20.921,4636,7
20.921,4637,7
20.921,4638,8
20.941,4639,8
20.941,4640,8
20.941,4641,7
20.941,4642,7
20.941,4643,6
20.941,4644,5
20.941,4645,5
20.960,4646,5
20.960,4647,4
20.960,4648,4
20.960,4649,3
20.960,4650,2
20.960,4651,1
20.980,4652,1
20.980,4653,0
20.980,4654,0
20.980,4655,1
20.980,4656,1
20.980,4657,1
20.980,4658,1
21.011,4659,1
21.011,4660,0
21.011,4661,0
21.011,4662,0
21.011,4663,0
21.011,4664,0
21.011,4665,0
21.040,4666,0
21.040,4667,0
21.040,4668,0
21.040,4669,0
21.040,4670,0
21.040,4671,0
21.062,4672,0
21.062,4673,0
21.062,4674,1
21.062,4675,1
21.062,4676,1
21.062,4677,0
21.062,4678,0
21.092,4679,0
21.092,4680,1
21.092,4681,0
21.092,4682,0
21.092,4683,0
21.092,4684,0
21.092,4685,0
21.125,4686,1
21.125,4687,1
21.125,4688,2
21.125,4689,2
21.125,4690,2
21.125,4691,2
21.139,4692,3
21.139,4693,5
21.139,4694,7
21.139,4695,10
21.139,4696,13
21.139,4697,15
21.162,4698,18
21.162,4699,21
21.162,4700,26
21.162,4701,32
21.162,4702,39
21.185,4703,46
21.185,4704,54
21.185,4705,60
21.185,4706,66
21.185,4707,70
21.214,4708,72
21.214,4709,73
21.214,4710,71
21.214,4711,66
21.214,4712,61
21.230,4713,54
21.230,4714,46
21.230,4715,38
21.230,4716,30
21.230,4717,22
21.251,4718,15
21.251,4719,9
21.251,4720,3
21.251,4721,-2
21.251,4722,-7
21.269,4723,-11
21.269,4724,-14
21.269,4725,-17
21.269,4726,-21
21.290,4727,-23
21.290,4728,-25
21.290,4729,-28
21.290,4730,-32
21.309,4731,-39
21.309,4732,-51
21.309,4733,-68
21.309,4734,-85
21.331,4735,-93
21.331,4736,-79
21.331,4737,-35
21.331,4738,22
21.331,4739,97
21.350,4740,162
21.351,4741,220
21.351,4742,269
21.351,4743,297
21.369,4744,291
21.369,4745,247
21.369,4746,171
21.369,4747,87
21.390,4748,15
21.390,4749,-34
21.390,4750,-61
21.390,4751,-73
21.422,4752,-76
21.422,4753,-77
21.422,4754,-79
21.422,4755,-83
21.439,4756,-86
21.439,4757,-86
21.439,4758,-86
21.439,4759,-82
21.460,4760,-79
21.460,4761,-76
21.460,4762,-73
21.460,4763,-71
21.484,4764,-68
21.484,4765,-65
21.484,4766,-62
21.484,4767,-60
21.500,4768,-58
21.500,4769,-56
21.500,4770,-54
21.500,4771,-52
21.522,4772,-49
21.522,4773,-47
21.522,4774,-45
21.522,4775,-44
21.543,4776,-42
21.543,4777,-41
21.543,4778,-40
21.543,4779,-39
21.560,4780,-39
21.560,4781,-38
21.560,4782,-38
21.560,4783,-37
21.589,4784,-37
21.589,4785,-36
21.589,4786,-36
21.589,4787,-35
21.603,4788,-35
21.603,4789,-34
21.603,4790,-33
21.603,4791,-33
21.620,4792,-31
21.620,4793,-29
21.620,4794,-27
21.620,4795,-25
21.650,4796,-21
21.650,4797,-18
21.650,4798,-15
21.650,4799,-13
21.672,4800,-12
21.672,4801,-12
21.672,4802,-11
21.672,4803,-10
21.690,4804,-8
21.690,4805,-8
21.690,4806,-7
21.690,4807,-6
21.690,4808,-5
21.713,4809,-5
21.713,4810,-4
21.713,4811,-3
21.713,4812,-3
21.713,4813,-3
21.730,4814,-3
21.730,4815,-2
21.730,4816,-1
21.730,4817,0
21.730,4818,0
21.730,4819,0
21.750,4820,0
21.750,4821,0
21.750,4822,0
21.750,4823,0
21.750,4824,0
21.750,4825,0
21.750,4826,0
21.773,4827,0
21.773,4828,0
21.773,4829,0
21.773,4830,0
21.774,4831,0
21.774,4832,0
21.792,4833,-1
21.792,4834,-2
21.792,4835,-2
21.792,4836,-2
21.792,4837,-2
21.810,4838,-2
21.810,4839,-2
21.810,4840,-2
21.810,4841,-2
21.810,4842,-1
21.832,4843,-2
21.832,4844,-3
21.832,4845,-2
21.833,4846,-2
21.833,4847,-1
21.849,4848,-2
21.849,4849,-2
21.849,4850,-3
21.849,4851,-3
21.849,4852,-3
21.880,4853,-3
21.880,4854,-2
21.880,4855,-2
21.880,4856,-1
21.880,4857,-1
21.900,4858,-2
21.900,4859,-2
21.900,4860,-2
21.900,4861,-2
21.900,4862,-1
21.920,4863,-2
21.920,4864,-2
21.920,4865,-2
21.920,4866,-1
21.920,4867,0
21.920,4868,0
21.940,4869,0
21.940,4870,0
21.940,4871,0
21.940,4872,0
21.940,4873,0
21.940,4874,0
21.964,4875,0
21.964,4876,0
21.964,4877,0
21.964,4878,1
21.965,4879,3
21.965,4880,6
21.965,4881,9
21.984,4882,12
21.984,4883,14
21.984,4884,17
21.984,4885,22
21.984,4886,27
22.000,4887,35
22.000,4888,43
22.000,4889,50
22.000,4890,56
22.001,4891,61
22.023,4892,65
22.023,4893,67
22.023,4894,68
22.023,4895,65
22.023,4896,61
22.039,4897,55
22.039,4898,48
22.039,4899,40
22.039,4900,32
22.040,4901,23
22.060,4902,16
22.060,4903,10
22.060,4904,4
22.060,4905,0
22.060,4906,-4
22.089,4907,-8
22.089,4908,-11
22.089,4909,-15
22.089,4910,-17
22.112,4911,-20
22.112,4912,-21
22.112,4913,-23
22.112,4914,-25
22.130,4915,-30
22.130,4916,-39
22.131,4917,-53
22.131,4918,-70
22.149,4919,-82
22.149,4920,-78
22.149,4921,-46
22.149,4922,5
22.149,4923,73
22.170,4924,142
22.170,4925,202
22.170,4926,254
22.170,4927,288
22.191,4928,290
22.191,4929,259
22.191,4930,195
22.191,4931,116
22.212,4932,60
22.212,4933,16
22.212,4934,1
22.212,4935,-8
22.212,4936,-16
22.232,4937,-25
22.232,4938,-33
22.233,4939,-39
22.233,4940,-43
22.250,4941,-45
22.250,4942,-45
22.250,4943,-46
22.250,4944,-46
22.271,4945,-46
22.271,4946,-45
22.271,4947,-44
22.271,4948,-43
22.290,4949,-42
22.290,4950,-41
22.290,4951,-40
22.290,4952,-39
22.323,4953,-38
22.323,4954,-37
22.323,4955,-35
22.323,4956,-33
22.339,4957,-31
22.339,4958,-29
22.339,4959,-28
22.339,4960,-28
22.363,4961,-26
22.363,4962,-26
22.363,4963,-25
22.363,4964,-24
22.383,4965,-24
22.383,4966,-23
22.383,4967,-23
22.384,4968,-23
22.399,4969,-23
22.399,4970,-23
22.399,4971,-22
22.399,4972,-22
22.422,4973,-21
22.422,4974,-19
22.422,4975,-17
22.422,4976,-15
22.443,4977,-13
22.443,4978,-9
22.443,4979,-6
22.443,4980,-3
22.443,4981,0
22.462,4982,0
22.462,4983,1
22.462,4984,3
22.462,4985,4
22.462,4986,5
22.462,4987,6
22.462,4988,7
22.480,4989,7
22.480,4990,7
22.480,4991,8
22.480,4992,8
22.480,4993,8
22.480,4994,8
22.480,4995,8
22.502,4996,9
22.502,4997,9
22.502,4998,9
22.502,4999,9
22.502,5000,9
22.502,5001,10
22.530,5002,10
22.530,5003,10
22.530,5004,9
22.530,5005,9
22.530,5006,10
22.550,5007,10
22.550,5008,10
22.550,5009,9
22.550,5010,10
22.550,5011,10
22.550,5012,10
22.570,5013,10
22.570,5014,10
22.570,5015,10
22.570,5016,9
22.570,5017,8
22.592,5018,8
22.592,5019,8
22.592,5020,8
22.592,5021,8
22.592,5022,7
22.592,5023,7
22.592,5024,6
22.611,5025,6
22.611,5026,6
22.611,5027,6
22.611,5028,6
22.611,5029,6
22.611,5030,6
22.611,5031,6
22.650,5032,6
22.650,5033,5
22.650,5034,5
22.650,5035,5
22.650,5036,4
22.650,5037,4
22.672,5038,3
22.672,5039,4
22.672,5040,4
22.672,5041,4
22.672,5042,4
22.672,5043,4
22.672,5044,4
22.690,5045,4
22.690,5046,4
22.690,5047,3
22.690,5048,4
22.690,5049,4
22.690,5050,4
22.690,5051,4
22.724,5052,5
22.724,5053,7
22.724,5054,9
22.724,5055,12
22.724,5056,15
22.749,5057,18
22.749,5058,21
22.749,5059,24
22.749,5060,29
22.749,5061,36
22.760,5062,43
22.760,5063,50
22.760,5064,58
22.760,5065,64
22.760,5066,70
22.780,5067,74
22.780,5068,77
22.780,5069,77
22.780,5070,74
22.780,5071,69
22.808,5072,61
22.808,5073,53
22.808,5074,45
22.808,5075,37
22.808,5076,29
22.819,5077,21
22.819,5078,15
22.819,5079,9
22.819,5080,4
22.819,5081,0
22.819,5082,-3
22.840,5083,-6
22.840,5084,-10
22.841,5085,-12
22.841,5086,-14
22.861,5087,-16
22.861,5088,-18
22.861,5089,-21
22.861,5090,-27
22.890,5091,-38
22.890,5092,-53
22.890,5093,-70
22.890,5094,-81
22.912,5095,-72
22.912,5096,-33
22.912,5097,20
22.912,5098,91
22.912,5099,156
22.931,5100,214
22.931,5101,263
22.931,5102,288
22.931,5103,282
22.951,5104,241
22.951,5105,170
22.951,5106,91
22.951,5107,22
22.969,5108,-26
22.969,5109,-53
22.969,5110,-64
22.969,5111,-67
22.994,5112,-68
22.994,5113,-70
22.994,5114,-73
22.994,5115,-76
23.011,5116,-76
23.011,5117,-75
23.011,5118,-72
23.011,5119,-69
23.029,5120,-67
23.029,5121,-64
23.029,5122,-61
23.029,5123,-59
23.051,5124,-55
23.051,5125,-52
23.051,5126,-49
23.051,5127,-47
23.069,5128,-44
23.069,5129,-41
23.069,5130,-38
23.069,5131,-35
23.102,5132,-33
23.102,5133,-31
23.102,5134,-29
23.102,5135,-28
23.119,5136,-26
23.119,5137,-25
23.119,5138,-24
23.119,5139,-23
23.141,5140,-23
23.141,5141,-23
23.141,5142,-23
23.141,5143,-22
23.171,5144,-21
23.171,5145,-20
23.171,5146,-18
23.171,5147,-18
23.179,5148,-15
23.179,5149,-14
23.179,5150,-12
23.179,5151,-11
23.199,5152,-9
23.199,5153,-7
23.199,5154,-5
23.199,5155,-3
23.199,5156,0
23.199,5157,1
23.222,5158,2
23.222,5159,3
23.222,5160,3
23.222,5161,2
23.222,5162,1
23.222,5163,1
23.239,5164,0
23.239,5165,0
23.239,5166,1
23.239,5167,1
23.239,5168,1
23.239,5169,1
23.239,5170,1
23.260,5171,2
23.260,5172,2
23.260,5173,1
23.260,5174,1
23.260,5175,1
23.260,5176,1
23.260,5177,1
23.279,5178,0
23.279,5179,0
23.279,5180,0
23.280,5181,1
23.280,5182,1
23.280,5183,2
23.310,5184,2
23.310,5185,3
23.310,5186,4
23.310,5187,4
23.310,5188,5
23.310,5189,5
23.310,5190,5
23.340,5191,5
23.340,5192,5
23.340,5193,5
23.340,5194,4
23.340,5195,4
23.340,5196,2
23.340,5197,1
23.359,5198,0
23.359,5199,0
23.359,5200,0
23.359,5201,0
23.359,5202,-1
23.359,5203,-1
23.382,5204,-2
23.382,5205,-3
23.382,5206,-3
23.382,5207,-4
23.382,5208,-4
23.400,5209,-4
23.400,5210,-4
23.400,5211,-4
23.400,5212,-4
23.400,5213,-5
23.434,5214,-6
23.434,5215,-6
23.434,5216,-6
23.434,5217,-7
23.434,5218,-7
23.450,5219,-7
23.450,5220,-7
23.450,5221,-6
23.450,5222,-4
23.450,5223,-2
23.470,5224,0
23.470,5225,2
23.470,5226,5
23.470,5227,7
23.470,5228,9
23.470,5229,12
23.489,5230,16
23.489,5231,23
23.489,5232,29
23.489,5233,37
23.489,5234,43
23.510,5235,48
23.510,5236,52
23.510,5237,54
23.510,5238,55
23.510,5239,52
23.531,5240,48
23.532,5241,41
23.532,5242,34
23.532,5243,26
23.532,5244,19
23.550,5245,11
23.550,5246,4
23.550,5247,-1
23.550,5248,-7
23.550,5249,-12
23.570,5250,-17
23.570,5251,-21
23.570,5252,-25
23.570,5253,-28
23.594,5254,-31
23.594,5255,-33
23.594,5256,-35
23.594,5257,-37
23.623,5258,-39
23.623,5259,-44
23.623,5260,-53
23.623,5261,-68
23.642,5262,-87
23.642,5263,-100
23.642,5264,-98
23.642,5265,-69
23.662,5266,-17
23.662,5267,50
23.662,5268,120
23.662,5269,182
23.680,5270,235
23.680,5271,261
23.680,5272,257
23.680,5273,218
23.700,5274,155
23.700,5275,84
23.700,5276,19
23.700,5277,-31
23.720,5278,-64
23.720,5279,-80
23.720,5280,-87
23.720,5281,-87
23.740,5282,-88
23.740,5283,-89
23.740,5284,-88
23.740,5285,-85
23.763,5286,-82
23.763,5287,-79
23.763,5288,-76
23.763,5289,-73
23.780,5290,-70
23.780,5291,-65
23.780,5292,-63
23.780,5293,-59
23.800,5294,-57
23.800,5295,-55
23.800,5296,-52
23.800,5297,-50
23.820,5298,-48
23.820,5299,-45
23.820,5300,-43
23.820,5301,-39
23.854,5302,-37
23.855,5303,-35
23.855,5304,-34
23.855,5305,-33
23.873,5306,-30
23.873,5307,-29
23.873,5308,-27
23.873,5309,-26
23.890,5310,-25
23.890,5311,-22
23.890,5312,-20
23.890,5313,-17
23.912,5314,-15
23.912,5315,-13
23.912,5316,-10
23.912,5317,-8
23.912,5318,-5
23.931,5319,-3
23.931,5320,-2
23.931,5321,1
23.931,5322,2
23.931,5323,4
23.931,5324,4
23.955,5325,3
23.955,5326,4
23.955,5327,3
23.955,5328,3
23.955,5329,2
23.955,5330,0
23.969,5331,0
23.969,5332,0
23.969,5333,-1
23.969,5334,-3
23.969,5335,-5
23.969,5336,-6
23.990,5337,-7
23.990,5338,-8
23.990,5339,-9
23.990,5340,-10
24.014,5341,-10
24.014,5342,-10
24.014,5343,-10
24.014,5344,-11
24.034,5345,-11
24.034,5346,-12
24.034,5347,-12
24.034,5348,-12
24.054,5349,-12
24.054,5350,-11
24.054,5351,-11
24.054,5352,-10
24.081,5353,-10
24.081,5354,-9
24.081,5355,-9
24.081,5356,-9
24.081,5357,-8
24.102,5358,-8
24.102,5359,-9
24.102,5360,-9
24.102,5361,-7
24.102,5362,-7
24.123,5363,-5
24.123,5364,-7
24.123,5365,-9
24.123,5366,-11
24.123,5367,-12
24.141,5368,-12
24.141,5369,-11
24.141,5370,-12
24.141,5371,-12
24.161,5372,-13
24.161,5373,-13
24.161,5374,-13
24.161,5375,-12
24.181,5376,-12
24.181,5377,-12
24.181,5378,-13
24.181,5379,-12
24.199,5380,-11
24.199,5381,-8
24.199,5382,-7
24.200,5383,-4
24.224,5384,-3
24.224,5385,-1
24.224,5386,2
24.224,5387,7
24.224,5388,14
24.224,5389,24
24.239,5390,31
24.240,5391,38
24.240,5392,42
24.240,5393,46
24.240,5394,50
24.259,5395,50
24.259,5396,49
24.259,5397,44
24.259,5398,38
24.259,5399,32
24.290,5400,23
24.291,5401,16
24.291,5402,7
24.291,5403,0
24.291,5404,-5
24.311,5405,-11
24.311,5406,-15
24.311,5407,-20
24.311,5408,-24
24.330,5409,-26
24.330,5410,-30
24.330,5411,-31
24.330,5412,-34
24.350,5413,-36
24.350,5414,-38
24.350,5415,-40
24.350,5416,-45
24.374,5417,-44
24.374,5418,-32
24.374,5419,7
24.374,5420,58
24.374,5421,126
24.391,5422,188
24.391,5423,242
24.391,5424,274
24.391,5425,278
24.409,5426,251
24.409,5427,196
24.409,5428,128
24.409,5429,60
24.434,5430,21
24.434,5431,-17
24.435,5432,-28
24.435,5433,-38
24.451,5434,-46
24.451,5435,-52
24.451,5436,-55
24.451,5437,-56
24.470,5438,-57
24.470,5439,-57
24.470,5440,-57
24.470,5441,-57
24.494,5442,-57
24.494,5443,-56
24.494,5444,-56
24.494,5445,-56
24.521,5446,-55
24.521,5447,-53
24.521,5448,-52
24.521,5449,-50
24.540,5450,-48
24.541,5451,-44
24.541,5452,-42
24.541,5453,-39
24.559,5454,-38
24.559,5455,-38
24.559,5456,-37
24.559,5457,-36
24.580,5458,-33
24.580,5459,-31
24.580,5460,-30
24.580,5461,-28
24.604,5462,-27
24.604,5463,-25
24.604,5464,-23
24.604,5465,-21
24.622,5466,-20
24.622,5467,-19
24.622,5468,-17
24.622,5469,-16
24.640,5470,-13
24.640,5471,-8
24.640,5472,-6
24.640,5473,-2
24.640,5474,-2
24.660,5475,-2
24.660,5476,0
24.660,5477,0
24.660,5478,0
24.660,5479,-2
24.660,5480,-4
24.680,5481,-4
24.680,5482,-7
24.680,5483,-7
24.680,5484,-10
24.700,5485,-12
24.700,5486,-13
24.700,5487,-14
24.700,5488,-14
24.721,5489,-15
24.721,5490,-15
24.721,5491,-15
24.721,5492,-16
24.754,5493,-16
24.754,5494,-17
24.754,5495,-17
24.754,5496,-17
24.769,5497,-18
24.769,5498,-19
24.769,5499,-20
24.769,5500,-18
24.795,5501,-19
24.795,5502,-18
24.795,5503,-18
24.795,5504,-18
24.810,5505,-18
24.810,5506,-17
24.810,5507,-18
24.810,5508,-19
24.840,5509,-20
24.840,5510,-21
24.840,5511,-21
24.840,5512,-22
24.850,5513,-21
24.850,5514,-21
24.850,5515,-22
24.850,5516,-21
24.874,5517,-21
24.874,5518,-19
24.874,5519,-19
24.874,5520,-18
24.890,5521,-17
24.890,5522,-16
24.890,5523,-11
24.890,5524,-6
24.890,5525,2
24.911,5526,10
24.911,5527,17
24.911,5528,24
24.912,5529,29
24.912,5530,32
24.942,5531,31
24.942,5532,28
24.942,5533,22
24.942,5534,17
24.942,5535,11
24.952,5536,5
24.952,5537,0
24.952,5538,-6
24.952,5539,-13
24.952,5540,-18
24.982,5541,-22
24.982,5542,-26
24.982,5543,-30
24.982,5544,-33
24.999,5545,-35
24.999,5546,-37
24.999,5547,-37
24.999,5548,-37
25.021,5549,-39
25.021,5550,-41
25.021,5551,-44
25.022,5552,-51
25.051,5553,-42
25.051,5554,-18
25.051,5555,29
25.051,5556,92
25.059,5557,159
25.059,5558,217
25.059,5559,264
25.059,5560,274
25.081,5561,263
25.081,5562,221
25.081,5563,167
25.081,5564,114
25.081,5565,58
25.099,5566,31
25.100,5567,-1
25.100,5568,-4
25.100,5569,-12
25.119,5570,-18
25.119,5571,-26
25.119,5572,-33
25.119,5573,-36
25.150,5574,-38
25.150,5575,-38
25.150,5576,-37
25.150,5577,-37
25.160,5578,-37
25.160,5579,-36
25.160,5580,-34
25.160,5581,-32
25.190,5582,-29
25.190,5583,-27
25.190,5584,-26
25.190,5585,-24
25.209,5586,-21
25.209,5587,-19
25.209,5588,-16
25.209,5589,-14
25.235,5590,-12
25.235,5591,-10
25.235,5592,-8
25.235,5593,-6
25.235,5594,-4
25.249,5595,-2
25.249,5596,2
25.249,5597,3
25.249,5598,7
25.249,5599,8
25.249,5600,8
25.272,5601,12
25.272,5602,12
25.272,5603,15
25.272,5604,15
25.272,5605,15
25.297,5606,19
25.297,5607,20
25.297,5608,24
25.297,5609,24
25.297,5610,25
25.310,5611,29
25.310,5612,30
25.310,5613,33
25.310,5614,34
25.310,5615,33
25.330,5616,35
25.330,5617,34
25.330,5618,35
25.330,5619,33
25.330,5620,31
25.354,5621,31
25.354,5622,29
25.354,5623,30
25.354,5624,27
25.354,5625,24
25.370,5626,25
25.370,5627,22
25.370,5628,23
25.370,5629,21
25.370,5630,19
25.390,5631,20
25.390,5632,19
25.390,5633,21
25.390,5634,20
25.390,5635,19
25.421,5636,21
25.421,5637,20
25.421,5638,21
25.421,5639,19
25.421,5640,17
25.440,5641,15
25.440,5642,14
25.440,5643,13
25.440,5644,12
25.440,5645,11
25.463,5646,9
25.463,5647,9
25.463,5648,8
25.463,5649,7
25.463,5650,7
25.464,5651,8
25.464,5652,11
25.479,5653,10
25.479,5654,12
25.479,5655,10
25.479,5656,8
25.479,5657,10
25.500,5658,9
25.500,5659,10
25.500,5660,8
25.500,5661,6
25.500,5662,9
25.500,5663,8
25.522,5664,10
25.522,5665,9
25.522,5666,8
25.522,5667,10
25.522,5668,10
25.522,5669,12
25.542,5670,12
25.542,5671,13
25.542,5672,17
25.542,5673,18
25.542,5674,22
25.570,5675,23
25.570,5676,24
25.570,5677,32
25.570,5678,37
25.570,5679,47
25.583,5680,53
25.583,5681,58
25.583,5682,66
25.583,5683,70
25.583,5684,74
25.599,5685,73
25.599,5686,69
25.599,5687,63
25.599,5688,56
25.599,5689,49
25.622,5690,40
25.622,5691,32
25.622,5692,26
25.622,5693,17
25.622,5694,12
25.651,5695,5
25.651,5696,0
25.651,5697,-2
25.651,5698,-7
25.651,5699,-8
25.669,5700,-13
25.670,5701,-16
25.670,5702,-16
25.670,5703,-18
25.690,5704,-17
25.690,5705,-21
25.690,5706,-27
25.690,5707,-36
25.715,5708,-51
25.715,5709,-67
25.715,5710,-78
25.715,5711,-73
25.734,5712,-33
25.734,5713,16
25.734,5714,91
25.734,5715,156
25.755,5716,213
25.755,5717,256
25.755,5718,269
25.755,5719,251
25.774,5720,195
25.774,5721,149
25.774,5722,96
25.774,5723,77
25.774,5724,60
25.791,5725,43
25.791,5726,26
25.791,5727,12
25.791,5728,0
25.791,5729,-7
25.812,5730,-14
25.812,5731,-19
25.812,5732,-24
25.812,5733,-27
25.835,5734,-29
25.835,5735,-31
25.835,5736,-32
25.835,5737,-34
25.849,5738,-34
25.849,5739,-35
25.849,5740,-36
25.849,5741,-36
25.881,5742,-36
25.881,5743,-33
25.881,5744,-33
25.881,5745,-30
25.902,5746,-30
25.902,5747,-31
25.902,5748,-30
25.902,5749,-29
25.923,5750,-28
25.924,5751,-27
25.924,5752,-27
25.924,5753,-26
25.940,5754,-25
25.940,5755,-24
25.940,5756,-23
25.940,5757,-23
25.959,5758,-24
25.959,5759,-24
25.959,5760,-24
25.959,5761,-23
25.982,5762,-21
25.982,5763,-16
25.982,5764,-15
25.982,5765,-11
25.999,5766,-11
26.000,5767,-10
26.000,5768,-9
26.000,5769,-8
26.000,5770,-8
26.020,5771,-7
26.020,5772,-7
26.020,5773,-5
26.020,5774,-6
26.020,5775,-4
26.040,5776,-7
26.040,5777,-9
26.040,5778,-11
26.040,5779,-9
26.060,5780,-11
26.060,5781,-10
26.060,5782,-12
26.060,5783,-14
26.093,5784,-11
26.093,5785,-12
26.093,5786,-9
26.093,5787,-10
26.093,5788,-11
26.111,5789,-11
26.111,5790,-11
26.111,5791,-11
26.111,5792,-12
26.136,5793,-11
26.136,5794,-11
26.136,5795,-10
26.136,5796,-9
26.149,5797,-8
26.149,5798,-8
26.149,5799,-5
26.149,5800,-6
26.150,5801,-4
26.172,5802,-5
26.172,5803,-6
26.172,5804,-7
26.172,5805,-8
26.172,5806,-9
26.202,5807,-7
26.202,5808,-8
26.202,5809,-7
26.202,5810,-8
26.202,5811,-10
26.211,5812,-8
26.211,5813,-10
26.211,5814,-8
26.211,5815,-9
26.230,5816,-11
26.230,5817,-9
26.230,5818,-9
26.230,5819,-5
26.230,5820,-5
26.253,5821,-4
26.253,5822,-3
26.253,5823,-1
26.253,5824,1
26.253,5825,5
26.253,5826,10
26.272,5827,15
26.272,5828,22
26.272,5829,30
26.272,5830,36
26.273,5831,41
26.291,5832,45
26.291,5833,46
26.291,5834,45
26.291,5835,41
26.291,5836,35
26.321,5837,28
26.321,5838,20
26.321,5839,13
26.321,5840,6
26.321,5841,0
26.342,5842,-7
26.342,5843,-14
26.342,5844,-20
26.342,5845,-26
26.361,5846,-30
26.361,5847,-34
26.361,5848,-37
26.361,5849,-39
26.382,5850,-41
26.382,5851,-42
26.382,5852,-43
26.382,5853,-46
26.402,5854,-55
26.402,5855,-68
26.402,5856,-63
26.402,5857,-46
26.402,5858,4
26.424,5859,65
26.424,5860,133
26.424,5861,192
26.424,5862,243
26.444,5863,218
26.444,5864,195
26.444,5865,109
26.444,5866,43
26.460,5867,0
26.460,5868,-24
26.460,5869,-36
26.460,5870,-43
26.480,5871,-51
26.480,5872,-58
26.480,5873,-64
26.480,5874,-69
26.502,5875,-72
26.502,5876,-73
26.502,5877,-73
26.502,5878,-73
26.523,5879,-72
26.523,5880,-72
26.524,5881,-68
26.524,5882,-68
26.549,5883,-62
26.549,5884,-58
26.549,5885,-56
26.549,5886,-52
26.569,5887,-52
26.569,5888,-52
26.569,5889,-50
26.569,5890,-48
26.593,5891,-46
26.593,5892,-44
26.593,5893,-41
26.593,5894,-38
26.615,5895,-35
26.615,5896,-33
26.615,5897,-29
26.615,5898,-28
26.629,5899,-24
26.629,5900,-24
26.629,5901,-24
26.629,5902,-23
26.649,5903,-22
26.649,5904,-21
26.649,5905,-21
26.649,5906,-20
26.673,5907,-19
26.673,5908,-19
26.673,5909,-18
26.673,5910,-17
26.692,5911,-14
26.692,5912,-13
26.692,5913,-12
26.692,5914,-9
26.692,5915,-10
26.713,5916,-9
26.713,5917,-11
26.713,5918,-13
26.713,5919,-13
26.731,5920,-15
26.731,5921,-14
26.731,5922,-15
26.731,5923,-17
26.761,5924,-15
26.761,5925,-16
26.761,5926,-15
26.761,5927,-16
26.780,5928,-16
26.780,5929,-16
26.780,5930,-16
26.780,5931,-15
26.803,5932,-12
26.803,5933,-13
26.803,5934,-10
26.803,5935,-10
26.823,5936,-9
26.823,5937,-8
26.823,5938,-7
26.823,5939,-3
26.823,5940,-3
26.844,5941,-1
26.844,5942,-2
26.844,5943,-3
26.844,5944,-3
26.844,5945,0
26.865,5946,0
26.865,5947,1
26.865,5948,0
26.865,5949,-1
26.865,5950,0
26.865,5951,0
26.865,5952,1
26.883,5953,0
26.883,5954,0
26.883,5955,1
26.883,5956,1
26.883,5957,5
26.883,5958,5
26.900,5959,7
26.900,5960,12
26.900,5961,13
26.900,5962,18
26.900,5963,19
26.926,5964,22
26.926,5965,32
26.926,5966,39
26.926,5967,50
26.926,5968,58
26.941,5969,64
26.941,5970,73
26.941,5971,77
26.941,5972,82
26.941,5973,79
26.960,5974,74
26.960,5975,70
26.960,5976,61
26.960,5977,55
26.960,5978,46
26.991,5979,37
26.991,5980,32
26.991,5981,24
26.991,5982,20
26.991,5983,12
26.991,5984,6
27.009,5985,4
27.009,5986,0
27.009,5987,-2
27.009,5988,-7
27.009,5989,-11
27.032,5990,-14
27.032,5991,-17
27.032,5992,-20
27.032,5993,-25
27.052,5994,-34
27.052,5995,-46
27.052,5996,-61
27.052,5997,-75
27.075,5998,-77
27.075,5999,-59
27.075,6000,-12
27.075,6001,45
27.090,6002,116
27.090,6003,177
27.090,6004,231
27.090,6005,267
27.114,6006,267
27.114,6007,242
27.114,6008,181
27.114,6009,111
27.132,6010,41
27.132,6011,-19
27.132,6012,-64
27.132,6013,-84
27.150,6014,-95
27.150,6015,-92
27.150,6016,-91
27.150,6017,-91
27.175,6018,-89
27.175,6019,-85
27.175,6020,-81
27.175,6021,-75
27.190,6022,-71
27.190,6023,-67
27.190,6024,-63
27.190,6025,-60
27.220,6026,-56
27.220,6027,-53
27.220,6028,-50
27.220,6029,-47
27.239,6030,-44
27.239,6031,-41
27.239,6032,-38
27.239,6033,-35
27.261,6034,-32
27.261,6035,-30
27.261,6036,-27
27.261,6037,-25
27.280,6038,-22
27.280,6039,-20
27.280,6040,-18
27.280,6041,-16
27.301,6042,-15
27.301,6043,-14
27.301,6044,-13
27.301,6045,-13
27.323,6046,-12
27.323,6047,-11
27.323,6048,-11
27.323,6049,-11
27.341,6050,-10
27.341,6051,-9
27.341,6052,-7
27.341,6053,-6
27.341,6054,-5
27.359,6055,-5
27.359,6056,-4
27.359,6057,-4
27.359,6058,-3
27.359,6059,-3
27.387,6060,-3
27.387,6061,-4
27.387,6062,-5
27.387,6063,-6
27.387,6064,-7
27.400,6065,-7
27.400,6066,-8
27.400,6067,-9
27.400,6068,-10
27.400,6069,-11
27.429,6070,-11
27.430,6071,-11
27.430,6072,-11
27.430,6073,-12
27.452,6074,-11
27.452,6075,-11
27.452,6076,-10
27.452,6077,-10
27.474,6078,-9
27.474,6079,-9
27.474,6080,-9
27.474,6081,-8
27.474,6082,-7
27.489,6083,-6
27.489,6084,-5
27.489,6085,-2
27.489,6086,-3
27.489,6087,-1
27.512,6088,-2
27.512,6089,-3
27.512,6090,-3
27.512,6091,-4
27.512,6092,-4
27.535,6093,-4
27.535,6094,-5
27.535,6095,-6
27.535,6096,-6
27.535,6097,-6
27.554,6098,-7
27.554,6099,-7
27.554,6100,-7
27.555,6101,-8
27.555,6102,-8
27.569,6103,-8
27.569,6104,-9
27.569,6105,-9
27.569,6106,-10
27.592,6107,-10
27.592,6108,-11
27.592,6109,-11
27.592,6110,-12
27.610,6111,-12
27.610,6112,-11
27.610,6113,-10
27.610,6114,-8
27.610,6115,-6
27.635,6116,-4
27.635,6117,-2
27.635,6118,0
27.635,6119,5
27.635,6120,11
27.660,6121,20
27.660,6122,28
27.660,6123,35
27.660,6124,40
27.660,6125,43
27.682,6126,44
27.682,6127,42
27.682,6128,37
27.682,6129,31
27.682,6130,24
27.701,6131,17
27.701,6132,9
27.701,6133,2
27.701,6134,-5
27.701,6135,-11
27.721,6136,-17
27.721,6137,-21
27.721,6138,-25
27.721,6139,-29
27.743,6140,-33
27.743,6141,-36
27.743,6142,-38
27.743,6143,-40
27.759,6144,-42
27.759,6145,-44
27.759,6146,-49
27.759,6147,-58
27.784,6148,-71
27.784,6149,-34
27.784,6150,-5
27.784,6151,71
27.784,6152,139
27.801,6153,199
27.801,6154,240
27.801,6155,251
27.801,6156,228
27.820,6157,171
27.820,6158,98
27.820,6159,25
27.820,6160,-33
27.843,6161,-74
27.843,6162,-96
27.843,6163,-106
27.843,6164,-106
27.860,6165,-104
27.860,6166,-102
27.860,6167,-98
27.893,6168,-94
27.893,6169,-90
27.893,6170,-86
27.893,6171,-83
27.909,6172,-81
27.909,6173,-79
27.909,6174,-75
27.909,6175,-72
27.932,6176,-68
27.932,6177,-64
27.932,6178,-59
27.932,6179,-55
27.961,6180,-51
27.962,6181,-48
27.962,6182,-46
27.962,6183,-43
27.969,6184,-41
27.969,6185,-37
27.969,6186,-35
27.969,6187,-34
27.992,6188,-32
27.992,6189,-30
27.992,6190,-28
27.992,6191,-26
28.010,6192,-25
28.010,6193,-24
28.010,6194,-22
28.010,6195,-21
28.031,6196,-19
28.031,6197,-18
28.031,6198,-16
28.031,6199,-17
28.052,6200,-12
28.052,6201,-12
28.052,6202,-9
28.052,6203,-9
28.052,6204,-9
28.070,6205,-9
28.070,6206,-10
28.070,6207,-11
28.070,6208,-11
28.089,6209,-12
28.089,6210,-13
28.089,6211,-15
28.089,6212,-17
28.122,6213,-19
28.122,6214,-21
28.122,6215,-22
28.122,6216,-22
28.143,6217,-23
28.143,6218,-24
28.143,6219,-25
28.143,6220,-25
28.169,6221,-25
28.169,6222,-25
28.169,6223,-25
28.169,6224,-24
28.182,6225,-23
28.182,6226,-22
28.182,6227,-21
28.182,6228,-20
28.200,6229,-20
28.200,6230,-19
28.200,6231,-19
28.200,6232,-18
28.220,6233,-18
28.220,6234,-17
28.220,6235,-16
28.220,6236,-15
28.239,6237,-13
28.239,6238,-12
28.239,6239,-12
28.239,6240,-12
28.261,6241,-12
28.261,6242,-12
28.261,6243,-12
28.261,6244,-13
28.280,6245,-14
28.280,6246,-15
28.280,6247,-16
28.280,6248,-18
28.302,6249,-19
28.302,6250,-18
28.302,6251,-19
28.302,6252,-17
28.324,6253,-17
28.324,6254,-16
28.324,6255,-16
28.324,6256,-16
28.352,6257,-17
28.352,6258,-16
28.352,6259,-15
28.352,6260,-13
28.385,6261,-11
28.385,6262,-9
28.385,6263,-7
28.385,6264,-5
28.385,6265,1
28.390,6266,6
28.390,6267,15
28.390,6268,22
28.390,6269,26
28.390,6270,27
28.413,6271,24
28.413,6272,20
28.413,6273,16
28.413,6274,11
28.413,6275,5
28.413,6276,0
28.430,6277,-5
28.430,6278,-10
28.430,6279,-15
28.430,6280,-19
28.452,6281,-23
28.452,6282,-27
28.452,6283,-30
28.452,6284,-32
28.470,6285,-34
28.470,6286,-36
28.470,6287,-37
28.470,6288,-39
28.491,6289,-43
28.491,6290,-50
28.491,6291,-61
28.491,6292,-73
28.510,6293,-83
28.510,6294,-45
28.510,6295,-8
28.510,6296,71
28.530,6297,140
28.530,6298,196
28.530,6299,223
28.530,6300,222
28.550,6301,187
28.550,6302,132
28.550,6303,68
28.550,6304,7
28.550,6305,-44
28.592,6306,-83
28.592,6307,-105
28.592,6308,-115
28.601,6309,-114
28.601,6310,-111
28.601,6311,-106
28.601,6312,-100
28.619,6313,-94
28.619,6314,-88
28.619,6315,-83
28.619,6316,-77
28.642,6317,-72
28.642,6318,-67
28.642,6319,-63
28.642,6320,-57
28.660,6321,-53
28.660,6322,-48
28.660,6323,-43
28.660,6324,-39
28.692,6325,-35
28.692,6326,-31
28.692,6327,-27
28.692,6328,-24
28.700,6329,-22
28.700,6330,-19
28.700,6331,-16
28.700,6332,-11
28.720,6333,-5
28.720,6334,-2
28.720,6335,2
28.720,6336,4
28.720,6337,5
28.720,6338,6
28.743,6339,8
28.743,6340,9
28.743,6341,10
28.743,6342,10
28.743,6343,12
28.764,6344,12
28.764,6345,14
28.764,6346,14
28.764,6347,14
28.764,6348,18
28.790,6349,18
28.790,6350,21
28.790,6351,20
28.790,6352,20
28.790,6353,22
28.809,6354,22
28.809,6355,25
28.809,6356,24
28.809,6357,22
28.809,6358,24
28.830,6359,23
28.830,6360,24
28.830,6361,22
28.830,6362,20
28.830,6363,20
28.852,6364,19
28.852,6365,20
28.852,6366,19
28.852,6367,17
28.852,6368,18
28.869,6369,16
28.869,6370,18
28.869,6371,17
28.869,6372,16
28.869,6373,16
28.892,6374,15
28.892,6375,15
28.892,6376,15
28.892,6377,16
28.892,6378,18
28.910,6379,18
28.910,6380,21
28.911,6381,21
28.911,6382,21
28.911,6383,21
28.929,6384,21
28.929,6385,24
28.929,6386,24
28.929,6387,26
28.929,6388,25
28.949,6389,24
28.949,6390,26
28.949,6391,25
28.949,6392,27
28.949,6393,26
28.973,6394,25
28.973,6395,26
28.973,6396,25
28.973,6397,27
28.973,6398,26
29.001,6399,25
29.001,6400,25
29.001,6401,24
29.001,6402,23
29.001,6403,22
29.023,6404,21
29.023,6405,20
29.023,6406,19
29.023,6407,19
29.023,6408,19
29.043,6409,19
29.043,6410,18
29.043,6411,17
29.043,6412,17
29.043,6413,16
29.062,6414,16
29.062,6415,17
29.062,6416,20
29.062,6417,20
29.062,6418,22
29.080,6419,22
29.080,6420,21
29.080,6421,23
29.080,6422,23
29.080,6423,24
29.106,6424,23
29.106,6425,21
29.106,6426,23
29.106,6427,23
29.106,6428,25
29.119,6429,24
29.119,6430,24
29.119,6431,23
29.119,6432,23
29.119,6433,22
29.140,6434,21
29.140,6435,21
29.140,6436,22
29.140,6437,23
29.140,6438,24
29.165,6439,26
29.165,6440,29
29.165,6441,31
29.165,6442,33
29.165,6443,35
29.181,6444,39
29.181,6445,45
29.181,6446,51
29.181,6447,60
29.181,6448,65
29.202,6449,72
29.202,6450,74
29.202,6451,76
29.202,6452,77
29.202,6453,73
29.223,6454,69
29.223,6455,63
29.223,6456,56
29.223,6457,50
29.223,6458,42
29.249,6459,36
29.249,6460,30
29.249,6461,23
29.249,6462,17
29.249,6463,12
29.249,6464,6
29.274,6465,2
29.274,6466,-1
29.274,6467,-4
29.274,6468,-7
29.274,6469,-9
29.291,6470,-12
29.291,6471,-17
29.291,6472,-26
29.291,6473,-39
29.310,6474,-52
29.310,6475,-61
29.310,6476,-58
29.310,6477,-17
29.331,6478,28
29.331,6479,101
29.331,6480,166
29.331,6481,220
29.350,6482,249
29.350,6483,227
29.350,6484,186
29.350,6485,107
29.371,6486,42
29.371,6487,-6
29.371,6488,-35
29.371,6489,-50
29.392,6490,-57
29.392,6491,-59
29.392,6492,-61
29.392,6493,-61
29.410,6494,-61
29.410,6495,-58
29.410,6496,-57
29.410,6497,-54
29.431,6498,-52
29.431,6499,-50
29.431,6500,-46
29.431,6501,-44
29.460,6502,-41
29.460,6503,-40
29.460,6504,-36
29.460,6505,-34
29.482,6506,-30
29.482,6507,-29
29.482,6508,-28
29.482,6509,-25
29.501,6510,-24
29.501,6511,-20
29.501,6512,-18
29.501,6513,-16
29.524,6514,-12
29.524,6515,-11
29.524,6516,-7
29.524,6517,-6
29.524,6518,-4
29.541,6519,-3
29.541,6520,-2
29.542,6521,-1
29.542,6522,0
29.542,6523,0
29.542,6524,1
29.560,6525,2
29.561,6526,2
29.561,6527,1
29.561,6528,1
29.561,6529,1
29.561,6530,2
29.561,6531,3
29.583,6532,3
29.583,6533,3
29.583,6534,3
29.583,6535,3
29.583,6536,3
29.583,6537,3
29.600,6538,3
29.600,6539,3
29.600,6540,3
29.600,6541,2
29.600,6542,0
29.600,6543,-2
29.620,6544,-4
29.620,6545,-6
29.620,6546,-8
29.620,6547,-10
29.620,6548,-11
29.643,6549,-11
29.643,6550,-12
29.643,6551,-13
29.643,6552,-14
29.663,6553,-15
29.664,6554,-15
29.664,6555,-15
29.664,6556,-14
29.692,6557,-14
29.692,6558,-14
29.692,6559,-12
29.692,6560,-11
29.710,6561,-10
29.710,6562,-10
29.710,6563,-9
29.710,6564,-8
29.731,6565,-7
29.731,6566,-5
29.731,6567,-4
29.731,6568,-3
29.731,6569,-1
29.731,6570,0
29.751,6571,2
29.751,6572,3
29.751,6573,4
29.751,6574,4
29.751,6575,4
29.751,6576,5
29.770,6577,5
29.770,6578,5
29.770,6579,5
29.770,6580,5
29.770,6581,5
29.770,6582,5
29.770,6583,4
29.792,6584,4
29.792,6585,3
29.792,6586,2
29.792,6587,1
29.792,6588,0
29.792,6589,0
29.792,6590,0
29.815,6591,0
29.815,6592,0
29.815,6593,0
29.815,6594,-1
29.815,6595,-1
29.839,6596,-2
29.839,6597,-3
29.839,6598,-3
29.839,6599,-3
29.839,6600,-4
29.850,6601,-3
29.850,6602,-4
29.850,6603,-3
29.850,6604,-3
29.850,6605,-2
29.870,6606,-2
29.870,6607,-1
29.870,6608,-1
29.870,6609,-1
29.870,6610,-1
29.901,6611,-1
29.901,6612,-2
29.901,6613,-3
29.901,6614,-3
29.901,6615,-3
29.922,6616,-2
29.922,6617,-2
29.922,6618,-3
29.922,6619,-3
29.922,6620,-3
29.940,6621,-3
29.940,6622,-3
29.940,6623,-3
29.940,6624,-3
29.940,6625,-3
29.959,6626,-3
29.959,6627,-3
29.959,6628,-4
29.959,6629,-4
29.959,6630,-3
29.980,6631,-3
29.980,6632,-3
29.980,6633,-3
29.980,6634,-2
29.980,6635,-1
30.003,6636,-1
30.003,6637,-1
30.003,6638,-1
30.003,6639,-1
30.003,6640,-1
30.022,6641,-1
30.022,6642,-1
30.022,6643,0
30.022,6644,1
30.022,6645,4
30.022,6646,6
30.022,6647,9
30.042,6648,11
30.042,6649,14
30.042,6650,18
30.042,6651,25
30.042,6652,32
30.060,6653,39
30.060,6654,47
30.060,6655,52
30.060,6656,56
30.060,6657,57
30.079,6658,57
30.079,6659,56
30.079,6660,53
30.079,6661,48
30.079,6662,41
30.110,6663,35
30.110,6664,28
30.110,6665,21
30.110,6666,14
30.110,6667,8
30.131,6668,2
30.131,6669,-1
30.131,6670,-5
30.131,6671,-9
30.131,6672,-13
30.153,6673,-17
30.153,6674,-19
30.153,6675,-21
30.153,6676,-22
30.170,6677,-24
30.170,6678,-28
30.170,6679,-34
30.170,6680,-43
30.192,6681,-55
30.192,6682,-68
30.192,6683,-79
30.192,6684,-77
30.209,6685,-52
30.209,6686,-4
30.209,6687,57
30.209,6688,127
30.230,6689,188
30.230,6690,241
30.230,6691,276
30.230,6692,280
30.255,6693,250
30.255,6694,188
30.255,6695,137
30.255,6696,84
30.255,6697,61
30.271,6698,40
30.271,6699,22
30.271,6700,5
30.271,6701,-6
30.271,6702,-17
30.292,6703,-25
30.292,6704,-30
30.292,6705,-35
30.292,6706,-39
30.310,6707,-42
30.310,6708,-46
30.310,6709,-47
30.310,6710,-50
30.340,6711,-51
30.340,6712,-52
30.340,6713,-53
30.340,6714,-52
30.362,6715,-52
30.362,6716,-50
30.362,6717,-49
30.362,6718,-48
30.384,6719,-47
30.384,6720,-46
30.384,6721,-44
30.384,6722,-43
30.402,6723,-40
30.402,6724,-38
30.402,6725,-36
30.402,6726,-34
30.422,6727,-33
30.422,6728,-32
30.422,6729,-30
30.422,6730,-29
30.444,6731,-26
30.444,6732,-25
30.444,6733,-24
30.444,6734,-23
30.459,6735,-22
30.459,6736,-20
30.459,6737,-20
30.459,6738,-19
30.481,6739,-19
30.481,6740,-18
30.482,6741,-17
30.482,6742,-17
30.503,6743,-16
30.503,6744,-17
30.503,6745,-18
30.503,6746,-18
30.521,6747,-20
30.521,6748,-21
30.521,6749,-23
30.521,6750,-24
30.540,6751,-25
30.540,6752,-26
30.540,6753,-27
30.540,6754,-28
30.580,6755,-30
30.580,6756,-30
30.580,6757,-31
30.580,6758,-32
30.590,6759,-33
30.590,6760,-33
30.590,6761,-32
30.590,6762,-31
30.611,6763,-28
30.611,6764,-27
30.611,6765,-25
30.611,6766,-23
30.630,6767,-21
30.630,6768,-18
30.630,6769,-16
30.630,6770,-14
30.653,6771,-11
30.653,6772,-10
30.653,6773,-7
30.653,6774,-6
30.669,6775,-4
30.669,6776,-3
30.669,6777,-3
30.669,6778,-3
30.669,6779,-4
30.689,6780,-4
30.689,6781,-4
30.689,6782,-4
30.689,6783,-5
30.689,6784,-5
30.710,6785,-6
30.710,6786,-7
30.710,6787,-8
30.710,6788,-8
30.710,6789,-9
30.730,6790,-9
30.731,6791,-9
30.731,6792,-9
30.731,6793,-9
30.731,6794,-9
30.749,6795,-10
30.749,6796,-11
30.749,6797,-11
30.749,6798,-12
30.774,6799,-11
30.774,6800,-10
30.774,6801,-10
30.774,6802,-9
30.801,6803,-8
30.802,6804,-8
30.802,6805,-8
30.802,6806,-9
30.802,6807,-9
30.820,6808,-9
30.820,6809,-8
30.820,6810,-8
30.820,6811,-8
30.820,6812,-8
30.843,6813,-7
30.843,6814,-7
30.843,6815,-7
30.843,6816,-6
30.843,6817,-6
30.864,6818,-6
30.864,6819,-6
30.864,6820,-6
30.864,6821,-6
30.864,6822,-6
30.880,6823,-5
30.880,6824,-5
30.880,6825,-5
30.880,6826,-4
30.880,6827,-4
30.900,6828,-4
30.900,6829,-3
30.900,6830,-3
30.900,6831,-3
30.900,6832,-3
30.923,6833,-3
30.923,6834,-2
30.923,6835,-2
30.923,6836,-2
30.923,6837,-3
30.942,6838,-3
30.942,6839,-3
30.942,6840,-2
30.942,6841,-1
30.942,6842,-1
30.960,6843,-1
30.960,6844,-2
30.960,6845,-2
30.960,6846,-2
30.960,6847,-2
30.983,6848,-1
30.983,6849,-1
30.983,6850,0
30.983,6851,0
30.983,6852,0
30.983,6853,2
30.983,6854,4
31.002,6855,7
31.002,6856,9
31.002,6857,11
31.002,6858,14
31.002,6859,18
31.030,6860,24
31.031,6861,31
31.031,6862,37
31.031,6863,43
31.031,6864,49
31.051,6865,52
31.051,6866,54
31.051,6867,55
31.051,6868,53
31.051,6869,49
31.073,6870,44
31.073,6871,38
31.073,6872,31
31.073,6873,24
31.073,6874,18
31.090,6875,13
31.090,6876,7
31.090,6877,2
31.090,6878,-1
31.090,6879,-5
31.090,6880,-8
31.111,6881,-11
31.111,6882,-14
31.111,6883,-17
31.111,6884,-19
31.134,6885,-21
31.134,6886,-22
31.134,6887,-24
31.134,6888,-28
31.150,6889,-35
31.150,6890,-46
31.150,6891,-47
31.150,6892,-34
31.172,6893,8
31.172,6894,62
31.172,6895,131
31.172,6896,192
31.194,6897,245
31.194,6898,222
31.194,6899,199
31.194,6900,112
31.210,6901,38
31.210,6902,-17
31.210,6903,-52
31.210,6904,-70
31.239,6905,-77
31.239,6906,-78
31.239,6907,-80
31.239,6908,-82
31.261,6909,-85
31.261,6910,-87
31.261,6911,-85
31.261,6912,-83
31.285,6913,-79
31.285,6914,-76
31.285,6915,-72
31.285,6916,-68
31.299,6917,-64
31.299,6918,-61
31.299,6919,-58
31.299,6920,-56
31.321,6921,-54
31.321,6922,-52
31.321,6923,-50
31.321,6924,-48
31.344,6925,-46
31.344,6926,-43
31.344,6927,-40
31.345,6928,-38
31.359,6929,-34
31.359,6930,-32
31.360,6931,-27
31.360,6932,-25
31.380,6933,-20
31.380,6934,-18
31.380,6935,-17
31.380,6936,-15
31.402,6937,-13
31.402,6938,-10
31.402,6939,-9
31.402,6940,-7
31.402,6941,-6
31.420,6942,-5
31.420,6943,-4
31.420,6944,-4
31.420,6945,-3
31.420,6946,-2
31.442,6947,-1
31.442,6948,0
31.442,6949,0
31.442,6950,-1
31.442,6951,0
31.442,6952,-1
31.474,6953,-1
31.474,6954,-1
31.474,6955,-3
31.474,6956,-3
31.474,6957,-4
31.490,6958,-5
31.490,6959,-7
31.490,6960,-9
31.490,6961,-10
31.510,6962,-11
31.510,6963,-12
31.510,6964,-14
31.510,6965,-15
31.530,6966,-16
31.530,6967,-17
31.530,6968,-16
31.530,6969,-16
31.550,6970,-17
31.550,6971,-17
31.550,6972,-18
31.550,6973,-17
31.571,6974,-16
31.571,6975,-14
31.571,6976,-13
31.571,6977,-12
31.590,6978,-11
31.590,6979,-9
31.590,6980,-7
31.590,6981,-5
31.590,6982,-4
31.611,6983,-3
31.611,6984,-1
31.611,6985,-1
31.611,6986,0
31.611,6987,0
31.611,6988,0
31.632,6989,1
31.632,6990,1
31.633,6991,0
31.633,6992,0
31.633,6993,0
31.633,6994,0
31.633,6995,0
31.651,6996,0
31.651,6997,0
31.651,6998,0
31.651,6999,0
31.651,7000,0
31.651,7001,0
31.651,7002,0
31.669,7003,0
31.669,7004,0
31.669,7005,0
31.669,7006,0
31.669,7007,0
31.669,7008,0
31.701,7009,0
31.701,7010,0
31.701,7011,0
31.701,7012,-1
31.701,7013,-1
31.701,7014,0
31.724,7015,0
31.724,7016,0
31.724,7017,0
31.724,7018,0
31.724,7019,0
31.724,7020,0
31.724,7021,0
31.740,7022,0
31.740,7023,0
31.740,7024,0
31.740,7025,0
31.740,7026,0
31.740,7027,0
31.740,7028,0
31.762,7029,0
31.762,7030,0
31.762,7031,0
31.762,7032,0
31.762,7033,0
31.762,7034,1
31.789,7035,1
31.789,7036,2
31.789,7037,3
31.789,7038,3
31.789,7039,4
31.789,7040,4
31.789,7041,3
31.822,7042,3
31.822,7043,3
31.822,7044,4
31.822,7045,4
31.822,7046,3
31.822,7047,3
31.822,7048,3
31.843,7049,3
31.843,7050,3
31.843,7051,4
31.843,7052,4
31.843,7053,5
31.843,7054,5
31.870,7055,5
31.870,7056,5
31.870,7057,5
31.870,7058,5
31.870,7059,5
31.870,7060,5
31.870,7061,5
31.904,7062,6
31.904,7063,7
31.904,7064,8
31.904,7065,9
31.904,7066,8
31.904,7067,8
31.904,7068,8
31.919,7069,9
31.919,7070,9
31.919,7071,10
31.919,7072,10
31.919,7073,10
31.943,7074,10
31.943,7075,9
31.943,7076,9
31.943,7077,8
31.943,7078,8
31.943,7079,8
31.943,7080,7
31.969,7081,7
31.969,7082,7
31.969,7083,7
31.969,7084,8
31.969,7085,9
31.969,7086,11
31.992,7087,14
31.992,7088,17
31.992,7089,19
31.992,7090,21
31.992,7091,24
32.023,7092,28
32.023,7093,34
32.023,7094,41
32.023,7095,49
32.023,7096,54
32.034,7097,59
32.034,7098,62
32.034,7099,64
32.034,7100,64
32.034,7101,62
32.053,7102,59
32.053,7103,54
32.053,7104,47
32.053,7105,40
32.053,7106,32
32.083,7107,25
32.083,7108,18
32.083,7109,13
32.083,7110,8
32.084,7111,4
32.084,7112,0
32.100,7113,-4
32.100,7114,-8
32.100,7115,-11
32.100,7116,-14
32.121,7117,-17
32.121,7118,-20
32.121,7119,-22
32.121,7120,-24
32.141,7121,-29
32.141,7122,-36
32.141,7123,-47
32.141,7124,-60
32.170,7125,-71
32.170,7126,-69
32.170,7127,-46
32.170,7128,1
32.170,7129,61
32.179,7130,130
32.179,7131,191
32.179,7132,244
32.179,7133,288
32.204,7134,300
32.204,7135,279
32.204,7136,221
32.204,7137,139
32.219,7138,57
32.219,7139,-6
32.219,7140,-48
32.219,7141,-71
32.239,7142,-80
32.239,7143,-83
32.239,7144,-85
32.239,7145,-87
32.264,7146,-89
32.265,7147,-91
32.265,7148,-91
32.265,7149,-89
32.290,7150,-87
32.290,7151,-84
32.290,7152,-81
32.290,7153,-78
32.310,7154,-76
32.310,7155,-74
32.310,7156,-70
32.310,7157,-67
32.329,7158,-63
32.329,7159,-59
32.329,7160,-56
32.329,7161,-52
32.350,7162,-49
32.350,7163,-45
32.350,7164,-42
32.350,7165,-40
32.370,7166,-36
32.370,7167,-34
32.370,7168,-31
32.370,7169,-28
32.394,7170,-26
32.394,7171,-23
32.394,7172,-21
32.394,7173,-20
32.413,7174,-18
32.413,7175,-16
32.413,7176,-15
32.413,7177,-13
32.434,7178,-12
32.434,7179,-11
32.434,7180,-10
32.435,7181,-9
32.450,7182,-8
32.450,7183,-7
32.450,7184,-7
32.450,7185,-6
32.450,7186,-6
32.472,7187,-7
32.472,7188,-6
32.472,7189,-7
32.472,7190,-6
32.472,7191,-7
32.490,7192,-8
32.490,7193,-8
32.490,7194,-9
32.490,7195,-9
32.490,7196,-10
32.519,7197,-11
32.519,7198,-12
32.519,7199,-13
32.519,7200,-14
32.543,7201,-15
32.543,7202,-16
32.543,7203,-17
32.543,7204,-18
32.560,7205,-18
32.561,7206,-19
32.561,7207,-21
32.561,7208,-20
32.583,7209,-21
32.583,7210,-20
32.583,7211,-19
32.583,7212,-17
32.603,7213,-16
32.603,7214,-14
32.603,7215,-13
32.603,7216,-11
32.621,7217,-10
32.621,7218,-9
32.621,7219,-8
32.621,7220,-7
32.622,7221,-6
32.640,7222,-6
32.640,7223,-5
32.640,7224,-3
32.640,7225,-2
32.640,7226,-1
32.662,7227,-1
32.662,7228,0
32.662,7229,0
32.662,7230,0
32.662,7231,0
32.662,7232,0
32.684,7233,0
32.684,7234,0
32.684,7235,-1
32.684,7236,0
32.684,7237,-1
32.684,7238,-2
32.700,7239,-1
32.700,7240,-2
32.700,7241,-1
32.700,7242,-1
32.700,7243,-2
32.734,7244,-2
32.734,7245,-3
32.734,7246,-3
32.734,7247,-3
32.734,7248,-4
32.750,7249,-2
32.750,7250,-3
32.750,7251,-3
32.750,7252,-4
32.750,7253,-4
32.774,7254,-4
32.774,7255,-6
32.774,7256,-6
32.774,7257,-6
32.774,7258,-6
32.789,7259,-5
32.789,7260,-5
32.790,7261,-4
32.790,7262,-5
32.790,7263,-6
32.809,7264,-5
32.809,7265,-6
32.809,7266,-6
32.809,7267,-6
32.809,7268,-7
32.829,7269,-5
32.829,7270,-5
32.829,7271,-5
32.829,7272,-5
32.829,7273,-6
32.850,7274,-5
32.850,7275,-5
32.850,7276,-4
32.850,7277,-4
32.850,7278,-4
32.870,7279,-2
32.870,7280,-2
32.870,7281,-1
32.870,7282,-2
32.870,7283,-2
32.899,7284,-1
32.899,7285,-1
32.899,7286,0
32.899,7287,0
32.899,7288,-1
32.899,7289,0
32.909,7290,0
32.909,7291,0
32.909,7292,-1
32.909,7293,-2
32.909,7294,-1
32.931,7295,-1
32.931,7296,0
32.931,7297,-1
32.931,7298,-1
32.931,7299,0
32.931,7300,0
32.960,7301,1
32.960,7302,1
32.960,7303,1
32.960,7304,2
32.960,7305,0
32.960,7306,1
32.960,7307,0
32.979,7308,0
32.979,7309,0
32.979,7310,0
32.979,7311,0
32.979,7312,0
32.979,7313,-1
33.000,7314,0
33.000,7315,0
33.000,7316,2
33.000,7317,2
33.000,7318,2
33.000,7319,3
33.000,7320,2
33.021,7321,2
33.021,7322,2
33.021,7323,2
33.021,7324,3
33.021,7325,2
33.021,7326,4
33.039,7327,4
33.039,7328,4
33.039,7329,7
33.039,7330,8
33.039,7331,11
33.039,7332,12
33.059,7333,14
33.059,7334,17
33.059,7335,18
33.059,7336,22
33.059,7337,26
33.079,7338,32
33.079,7339,40
33.079,7340,46
33.079,7341,53
33.079,7342,56
33.099,7343,58
33.099,7344,60
33.099,7345,58
33.099,7346,56
33.099,7347,51
33.121,7348,44
33.121,7349,39
33.121,7350,31
33.121,7351,25
33.121,7352,18
33.144,7353,11
33.144,7354,7
33.144,7355,2
33.144,7356,-1
33.144,7357,-5
33.144,7358,-9
33.171,7359,-10
33.171,7360,-13
33.171,7361,-15
33.171,7362,-17
33.190,7363,-19
33.190,7364,-20
33.191,7365,-23
33.191,7366,-28
33.209,7367,-37
33.209,7368,-50
33.209,7369,-62
33.209,7370,-70
33.231,7371,-60
33.231,7372,-25
33.231,7373,26
33.231,7374,93
33.250,7375,159
33.250,7376,217
33.250,7377,267
33.250,7378,301
33.270,7379,300
33.270,7380,263
33.270,7381,190
33.270,7382,103
33.297,7383,25
33.297,7384,-27
33.297,7385,-59
33.297,7386,-72
33.310,7387,-77
33.310,7388,-79
33.310,7389,-80
33.310,7390,-80
33.330,7391,-79
33.330,7392,-78
33.330,7393,-77
33.330,7394,-77
33.354,7395,-75
33.354,7396,-73
33.354,7397,-71
33.354,7398,-68
33.380,7399,-66
33.380,7400,-63
33.380,7401,-61
33.380,7402,-59
33.399,7403,-57
33.399,7404,-54
33.399,7405,-52
33.399,7406,-49
33.419,7407,-46
33.419,7408,-43
33.419,7409,-41
33.419,7410,-39
33.441,7411,-36
33.441,7412,-33
33.441,7413,-30
33.441,7414,-28
33.461,7415,-26
33.461,7416,-22
33.461,7417,-19
33.461,7418,-16
33.483,7419,-14
33.484,7420,-13
33.484,7421,-9
33.484,7422,-7
33.484,7423,-4
33.503,7424,-2
33.503,7425,-1
33.503,7426,0
33.503,7427,0
33.503,7428,0
33.503,7429,0
33.519,7430,0
33.519,7431,0
33.519,7432,-1
33.519,7433,-1
33.519,7434,-2
33.544,7435,-2
33.544,7436,-3
33.544,7437,-4
33.544,7438,-6
33.544,7439,-8
33.564,7440,-9
33.564,7441,-11
33.564,7442,-12
33.564,7443,-13
33.581,7444,-14
33.581,7445,-15
33.581,7446,-16
33.581,7447,-18
33.609,7448,-19
33.609,7449,-20
33.609,7450,-20
33.609,7451,-21
33.629,7452,-21
33.629,7453,-19
33.629,7454,-19
33.629,7455,-17
33.652,7456,-17
33.652,7457,-17
33.652,7458,-16
33.652,7459,-14
33.673,7460,-11
33.673,7461,-9
33.673,7462,-7
33.673,7463,-6
33.673,7464,-5
33.692,7465,-3
33.692,7466,-1
33.692,7467,0
33.692,7468,1
33.692,7469,1
33.692,7470,2
33.692,7471,3
33.713,7472,3
33.713,7473,3
33.713,7474,3
33.713,7475,3
33.713,7476,3
33.713,7477,3
33.732,7478,2
33.732,7479,1
33.732,7480,1
33.732,7481,0
33.732,7482,0
33.732,7483,0
33.732,7484,0
33.749,7485,0
33.749,7486,0
33.749,7487,0
33.749,7488,-1
33.749,7489,-1
33.749,7490,-2
33.770,7491,-2
33.770,7492,-2
33.770,7493,-2
33.770,7494,-3
33.770,7495,-3
33.790,7496,-3
33.790,7497,-3
33.790,7498,-3
33.790,7499,-3
33.790,7500,-3
33.830,7501,-3
33.831,7502,-2
33.831,7503,-2
33.831,7504,-2
33.831,7505,-1
33.839,7506,-1
33.839,7507,-1
33.839,7508,-1
33.839,7509,-1
33.839,7510,-1
33.859,7511,0
33.859,7512,0
33.859,7513,0
33.859,7514,0
33.859,7515,0
33.859,7516,0
33.882,7517,0
33.882,7518,-1
33.882,7519,-1
33.882,7520,-2
33.882,7521,-2
33.903,7522,-2
33.903,7523,-2
33.903,7524,-2
33.903,7525,-2
33.903,7526,-1
33.922,7527,-1
33.922,7528,-1
33.922,7529,0
33.922,7530,0
33.922,7531,1
33.922,7532,1
33.922,7533,1
33.939,7534,1
33.939,7535,2
33.939,7536,3
33.939,7537,3
33.939,7538,3
33.939,7539,4
33.959,7540,5
33.959,7541,6
33.959,7542,6
33.959,7543,7
33.959,7544,7
33.959,7545,7
33.959,7546,7
33.989,7547,7
33.989,7548,8
33.990,7549,8
33.990,7550,9
33.990,7551,9
33.990,7552,8
33.990,7553,8
34.011,7554,9
34.011,7555,10
34.011,7556,11
34.011,7557,11
34.011,7558,10
34.040,7559,10
34.040,7560,10
34.040,7561,9
34.040,7562,9
34.040,7563,8
34.040,7564,8
34.061,7565,9
34.061,7566,10
34.061,7567,10
34.061,7568,11
34.061,7569,12
34.080,7570,12
34.080,7571,12
34.080,7572,12
34.080,7573,13
34.080,7574,13
34.100,7575,13
34.100,7576,13
34.100,7577,12
34.100,7578,12
34.100,7579,12
34.123,7580,12
34.123,7581,13
34.123,7582,15
34.123,7583,17
34.123,7584,19
34.139,7585,21
